Data from FLMT043001_09-33-43-465.txt Node
Date: Wed Sep 13 09:33:43 AWST 2023
User: vk1team
Spectrometer: FLMT04300
Trigger mode: 0
Integration Time (sec): 1.000000E-1
Scans to average: 1
Electric dark correction enabled: true
Nonlinearity correction enabled: false
Boxcar width: 0
XAxis mode: Wavelengths
Number of Pixels in Spectrum: 3648
>>>>>Begin Spectral Data<<<<<
195.236	-136.73
195.457	-136.73
195.678	-136.73
195.899	-154.4
196.119	-64.32
196.34	71.68
196.561	62.85
196.782	20.46
197.002	-20.16
197.223	55.78
197.444	-73.15
197.664	-32.53
197.885	-92.58
198.106	-13.1
198.326	41.65
198.547	2.8
198.768	-23.7
198.988	-14.87
199.209	-62.55
199.429	-0.74
199.65	-69.62
199.871	27.52
200.091	-14.87
200.312	1.03
200.532	-7.8
200.753	-16.63
200.973	-14.87
201.194	73.44
201.414	-20.16
201.635	34.59
201.855	-50.19
202.076	-43.12
202.296	-23.7
202.516	32.82
202.737	69.91
202.957	9.86
203.178	66.38
203.398	-67.85
203.618	59.32
203.839	-78.45
204.059	-9.57
204.279	-73.15
204.5	-34.29
204.72	50.48
204.94	-36.06
205.16	48.72
205.381	69.91
205.601	-30.76
205.821	29.29
206.041	16.93
206.262	2.8
206.482	55.78
206.702	73.44
206.922	-6.03
207.142	54.02
207.362	39.89
207.583	-14.87
207.803	1.03
208.023	1.03
208.243	-25.46
208.463	-0.74
208.683	52.25
208.903	-27.23
209.123	22.22
209.343	-6.03
209.563	45.19
209.783	54.02
210.003	-27.23
210.223	-20.16
210.443	54.02
210.663	-62.55
210.883	-11.33
211.103	-41.36
211.323	36.35
211.543	-0.74
211.763	4.56
211.983	-44.89
212.202	-6.03
212.422	-27.23
212.642	2.8
212.862	23.99
213.082	-18.4
213.302	36.35
213.521	-30.76
213.741	4.56
213.961	-20.16
214.181	25.76
214.4	11.63
214.62	-11.33
214.84	-36.06
215.06	-9.57
215.279	-29
215.499	48.72
215.719	46.95
215.938	45.19
216.158	-64.32
216.377	52.25
216.597	94.64
216.817	-81.98
217.036	1.03
217.256	9.86
217.475	-6.03
217.695	-2.5
217.914	68.15
218.134	-9.57
218.354	36.35
218.573	-48.42
218.793	98.17
219.012	69.91
219.231	-7.8
219.451	-23.7
219.67	-9.57
219.89	27.52
220.109	108.77
220.329	-7.8
220.548	34.59
220.767	59.32
220.987	6.33
221.206	-62.55
221.425	27.52
221.645	59.32
221.864	11.63
222.083	-29
222.303	11.63
222.522	-18.4
222.741	99.94
222.96	59.32
223.18	2.8
223.399	-32.53
223.618	32.82
223.837	-6.03
224.056	-20.16
224.276	138.79
224.495	54.02
224.714	-29
224.933	36.35
225.152	68.15
225.371	-21.93
225.59	-92.58
225.809	-57.25
226.028	22.22
226.248	23.99
226.467	59.32
226.686	-39.59
226.905	27.52
227.124	-27.23
227.343	1.03
227.562	1.03
227.781	57.55
228	76.98
228.218	-51.96
228.437	43.42
228.656	18.69
228.875	-16.63
229.094	-29
229.313	23.99
229.532	29.29
229.751	38.12
229.97	-36.06
230.188	6.33
230.407	43.42
230.626	68.15
230.845	-27.23
231.064	23.99
231.282	-46.66
231.501	54.02
231.72	9.86
231.939	54.02
232.157	4.56
232.376	71.68
232.595	-29
232.813	-13.1
233.032	-4.27
233.251	55.78
233.469	75.21
233.688	55.78
233.907	15.16
234.125	99.94
234.344	9.86
234.562	73.44
234.781	2.8
234.999	29.29
235.218	-59.02
235.436	4.56
235.655	22.22
235.873	11.63
236.092	15.16
236.31	16.93
236.529	27.52
236.747	29.29
236.966	-0.74
237.184	-59.02
237.403	-9.57
237.621	59.32
237.839	-23.7
238.058	55.78
238.276	-4.27
238.494	-32.53
238.713	-90.81
238.931	-25.46
239.149	108.77
239.368	-30.76
239.586	18.69
239.804	117.6
240.022	15.16
240.241	22.22
240.459	20.46
240.677	27.52
240.895	-60.79
241.113	75.21
241.332	54.02
241.55	168.82
241.768	-89.05
241.986	-9.57
242.204	66.38
242.422	38.12
242.64	20.46
242.859	46.95
243.077	-0.74
243.295	71.68
243.513	-13.1
243.731	-43.12
243.949	-36.06
244.167	38.12
244.385	-55.49
244.603	-41.36
244.821	31.06
245.039	38.12
245.257	75.21
245.475	-41.36
245.692	46.95
245.91	25.76
246.128	54.02
246.346	23.99
246.564	22.22
246.782	-0.74
247	16.93
247.218	-0.74
247.435	68.15
247.653	-83.75
247.871	66.38
248.089	-34.29
248.306	-11.33
248.524	-21.93
248.742	43.42
248.96	61.08
249.177	15.16
249.395	64.61
249.613	-64.32
249.83	-44.89
250.048	-53.72
250.266	39.89
250.483	36.35
250.701	48.72
250.919	-32.53
251.136	1.03
251.354	9.86
251.571	25.76
251.789	-0.74
252.006	-13.1
252.224	61.08
252.441	-51.96
252.659	-39.59
252.876	-89.05
253.094	-30.76
253.311	94.64
253.529	-57.25
253.746	50.48
253.964	-6.03
254.181	6.33
254.399	-16.63
254.616	31.06
254.833	4.56
255.051	39.89
255.268	9.86
255.485	45.19
255.703	-62.55
255.92	-43.12
256.137	66.38
256.355	57.55
256.572	1.03
256.789	25.76
257.006	105.24
257.224	4.56
257.441	-30.76
257.658	-41.36
257.875	-57.25
258.092	-29
258.31	137.03
258.527	59.32
258.744	89.34
258.961	-7.8
259.178	23.99
259.395	61.08
259.612	-23.7
259.829	98.17
260.046	6.33
260.263	85.81
260.48	31.06
260.698	31.06
260.915	55.78
261.132	6.33
261.349	-20.16
261.565	-41.36
261.782	15.16
261.999	66.38
262.216	13.39
262.433	22.22
262.65	-80.22
262.867	-37.83
263.084	-51.96
263.301	45.19
263.518	54.02
263.734	9.86
263.951	6.33
264.168	6.33
264.385	18.69
264.602	-39.59
264.818	11.63
265.035	59.32
265.252	16.93
265.469	-81.98
265.685	36.35
265.902	52.25
266.119	-80.22
266.336	43.42
266.552	57.55
266.769	61.08
266.986	64.61
267.202	41.65
267.419	29.29
267.635	-66.09
267.852	87.57
268.069	-6.03
268.285	-50.19
268.502	8.1
268.718	115.83
268.935	25.76
269.151	43.42
269.368	16.93
269.584	-66.09
269.801	8.1
270.017	-36.06
270.234	22.22
270.45	11.63
270.666	34.59
270.883	-34.29
271.099	20.46
271.316	18.69
271.532	-0.74
271.748	-36.06
271.965	78.74
272.181	-25.46
272.397	66.38
272.614	-53.72
272.83	-14.87
273.046	18.69
273.263	39.89
273.479	-59.02
273.695	4.56
273.911	-14.87
274.127	62.85
274.344	84.04
274.56	-43.12
274.776	38.12
274.992	-39.59
275.208	23.99
275.424	-78.45
275.641	62.85
275.857	39.89
276.073	18.69
276.289	1.03
276.505	-0.74
276.721	31.06
276.937	52.25
277.153	52.25
277.369	39.89
277.585	-110.24
277.801	-6.03
278.017	1.03
278.233	11.63
278.449	-14.87
278.665	82.28
278.881	-2.5
279.097	-30.76
279.313	-14.87
279.528	52.25
279.744	9.86
279.96	38.12
280.176	9.86
280.392	87.57
280.608	78.74
280.823	-9.57
281.039	15.16
281.255	-80.22
281.471	92.87
281.687	-16.63
281.902	59.32
282.118	-55.49
282.334	48.72
282.549	39.89
282.765	-46.66
282.981	15.16
283.196	-20.16
283.412	-4.27
283.628	34.59
283.843	-2.5
284.059	-23.7
284.274	-13.1
284.49	15.16
284.706	23.99
284.921	-57.25
285.137	34.59
285.352	131.73
285.568	15.16
285.783	-23.7
285.999	31.06
286.214	-67.85
286.43	-18.4
286.645	36.35
286.861	-21.93
287.076	-9.57
287.291	-6.03
287.507	39.89
287.722	-13.1
287.938	66.38
288.153	-64.32
288.368	8.1
288.584	-81.98
288.799	-34.29
289.014	64.61
289.229	59.32
289.445	-62.55
289.66	-20.16
289.875	-34.29
290.09	64.61
290.306	-69.62
290.521	-23.7
290.736	-27.23
290.951	-73.15
291.166	22.22
291.382	68.15
291.597	38.12
291.812	-34.29
292.027	-43.12
292.242	18.69
292.457	31.06
292.672	-16.63
292.887	-2.5
293.102	-64.32
293.317	-7.8
293.532	1.03
293.747	48.72
293.962	27.52
294.177	-50.19
294.392	-29
294.607	18.69
294.822	62.85
295.037	6.33
295.252	73.44
295.467	-7.8
295.682	45.19
295.897	45.19
296.112	-11.33
296.326	85.81
296.541	-21.93
296.756	-30.76
296.971	-83.75
297.186	25.76
297.4	-51.96
297.615	41.65
297.83	16.93
298.045	68.15
298.259	59.32
298.474	-57.25
298.689	48.72
298.903	15.16
299.118	-21.93
299.333	-9.57
299.547	-7.8
299.762	-43.12
299.977	64.61
300.191	34.59
300.406	80.51
300.62	55.78
300.835	-11.33
301.05	46.95
301.264	-96.11
301.479	43.42
301.693	62.85
301.908	-59.02
302.122	-29
302.337	99.94
302.551	22.22
302.766	55.78
302.98	23.99
303.194	9.86
303.409	-2.5
303.623	75.21
303.838	41.65
304.052	11.63
304.266	-34.29
304.481	-36.06
304.695	-25.46
304.909	-7.8
305.124	-11.33
305.338	29.29
305.552	2.8
305.766	-48.42
305.981	-11.33
306.195	46.95
306.409	96.41
306.623	57.55
306.837	-27.23
307.052	-27.23
307.266	-18.4
307.48	27.52
307.694	32.82
307.908	11.63
308.122	-37.83
308.336	36.35
308.55	87.57
308.764	48.72
308.979	2.8
309.193	27.52
309.407	57.55
309.621	-62.55
309.835	45.19
310.049	4.56
310.263	101.7
310.477	25.76
310.69	11.63
310.904	-34.29
311.118	-67.85
311.332	18.69
311.546	9.86
311.76	-74.92
311.974	46.95
312.188	15.16
312.402	9.86
312.615	36.35
312.829	-23.7
313.043	-67.85
313.257	8.1
313.471	11.63
313.684	18.69
313.898	-4.27
314.112	22.22
314.325	-23.7
314.539	-4.27
314.753	-81.98
314.967	46.95
315.18	22.22
315.394	6.33
315.607	18.69
315.821	-69.62
316.035	34.59
316.248	11.63
316.462	-36.06
316.675	-0.74
316.889	82.28
317.103	41.65
317.316	-39.59
317.53	-4.27
317.743	-78.45
317.957	76.98
318.17	-29
318.384	-6.03
318.597	-9.57
318.81	-74.92
319.024	-7.8
319.237	-7.8
319.451	68.15
319.664	133.5
319.877	-2.5
320.091	2.8
320.304	-43.12
320.517	27.52
320.731	62.85
320.944	41.65
321.157	-90.81
321.371	-43.12
321.584	-50.19
321.797	13.39
322.01	87.57
322.223	-6.03
322.437	-21.93
322.65	52.25
322.863	73.44
323.076	-41.36
323.289	-2.5
323.502	16.93
323.716	-13.1
323.929	-44.89
324.142	-6.03
324.355	27.52
324.568	39.89
324.781	-6.03
324.994	-21.93
325.207	110.53
325.42	23.99
325.633	-36.06
325.846	-27.23
326.059	34.59
326.272	-14.87
326.485	-27.23
326.698	-18.4
326.911	-6.03
327.124	-106.71
327.336	-29
327.549	32.82
327.762	-41.36
327.975	22.22
328.188	62.85
328.401	-36.06
328.613	76.98
328.826	-73.15
329.039	22.22
329.252	20.46
329.465	-29
329.677	-14.87
329.89	-14.87
330.103	18.69
330.315	20.46
330.528	66.38
330.741	-11.33
330.953	-43.12
331.166	-43.12
331.379	-18.4
331.591	29.29
331.804	43.42
332.017	31.06
332.229	-32.53
332.442	64.61
332.654	43.42
332.867	-44.89
333.079	-41.36
333.292	1.03
333.504	4.56
333.717	71.68
333.929	-113.77
334.142	32.82
334.354	36.35
334.566	69.91
334.779	11.63
334.991	20.46
335.204	9.86
335.416	29.29
335.628	-0.74
335.841	115.83
336.053	-71.38
336.265	1.03
336.478	-27.23
336.69	20.46
336.902	11.63
337.114	34.59
337.327	-23.7
337.539	50.48
337.751	55.78
337.963	-21.93
338.176	20.46
338.388	13.39
338.6	22.22
338.812	-21.93
339.024	-0.74
339.236	-36.06
339.448	-50.19
339.66	-27.23
339.873	-25.46
340.085	-53.72
340.297	69.91
340.509	-14.87
340.721	29.29
340.933	43.42
341.145	61.08
341.357	-43.12
341.569	-39.59
341.781	43.42
341.993	11.63
342.204	23.99
342.416	-0.74
342.628	-9.57
342.84	1.03
343.052	-43.12
343.264	1.03
343.476	-36.06
343.688	55.78
343.899	-6.03
344.111	-14.87
344.323	-13.1
344.535	-4.27
344.746	87.57
344.958	1.03
345.17	23.99
345.382	32.82
345.593	1.03
345.805	-9.57
346.017	29.29
346.228	39.89
346.44	16.93
346.652	25.76
346.863	91.11
347.075	-6.03
347.286	27.52
347.498	-2.5
347.71	-0.74
347.921	-25.46
348.133	-41.36
348.344	41.65
348.556	48.72
348.767	13.39
348.979	22.22
349.19	82.28
349.402	-74.92
349.613	-36.06
349.825	6.33
350.036	-55.49
350.247	-7.8
350.459	-62.55
350.67	-18.4
350.881	-25.46
351.093	36.35
351.304	-4.27
351.515	18.69
351.727	11.63
351.938	-80.22
352.149	-16.63
352.361	-69.62
352.572	2.8
352.783	-53.72
352.994	6.33
353.205	66.38
353.417	-41.36
353.628	15.16
353.839	75.21
354.05	16.93
354.261	-55.49
354.472	32.82
354.683	4.56
354.895	69.91
355.106	-48.42
355.317	-30.76
355.528	73.44
355.739	6.33
355.95	-21.93
356.161	-27.23
356.372	23.99
356.583	22.22
356.794	48.72
357.005	9.86
357.216	-13.1
357.427	8.1
357.638	-69.62
357.848	-64.32
358.059	-51.96
358.27	78.74
358.481	43.42
358.692	11.63
358.903	-0.74
359.114	13.39
359.324	-6.03
359.535	-13.1
359.746	23.99
359.957	27.52
360.167	31.06
360.378	-41.36
360.589	-51.96
360.8	-73.15
361.01	16.93
361.221	43.42
361.432	-119.07
361.642	69.91
361.853	-36.06
362.063	36.35
362.274	-16.63
362.485	1.03
362.695	23.99
362.906	48.72
363.116	-13.1
363.327	-7.8
363.537	15.16
363.748	15.16
363.958	59.32
364.169	57.55
364.379	45.19
364.59	78.74
364.8	18.69
365.011	152.92
365.221	18.69
365.431	22.22
365.642	103.47
365.852	122.9
366.063	101.7
366.273	-46.66
366.483	22.22
366.694	69.91
366.904	-23.7
367.114	43.42
367.324	18.69
367.535	-44.89
367.745	48.72
367.955	-46.66
368.165	57.55
368.375	-92.58
368.586	45.19
368.796	-36.06
369.006	-101.41
369.216	4.56
369.426	-39.59
369.636	57.55
369.846	-25.46
370.057	80.51
370.267	69.91
370.477	-62.55
370.687	-37.83
370.897	-34.29
371.107	25.76
371.317	-25.46
371.527	156.46
371.737	34.59
371.947	-59.02
372.157	20.46
372.367	-20.16
372.576	36.35
372.786	9.86
372.996	55.78
373.206	20.46
373.416	15.16
373.626	103.47
373.836	43.42
374.045	-32.53
374.255	31.06
374.465	-69.62
374.675	34.59
374.885	1.03
375.094	46.95
375.304	-34.29
375.514	1.03
375.724	59.32
375.933	36.35
376.143	-43.12
376.353	-2.5
376.562	64.61
376.772	8.1
376.981	36.35
377.191	23.99
377.401	-4.27
377.61	78.74
377.82	-41.36
378.029	103.47
378.239	-30.76
378.448	15.16
378.658	18.69
378.867	1.03
379.077	-92.58
379.286	94.64
379.496	-23.7
379.705	45.19
379.915	-41.36
380.124	62.85
380.333	8.1
380.543	-21.93
380.752	-6.03
380.962	43.42
381.171	76.98
381.38	15.16
381.589	16.93
381.799	-44.89
382.008	-2.5
382.217	20.46
382.427	-16.63
382.636	99.94
382.845	-32.53
383.054	48.72
383.263	41.65
383.473	66.38
383.682	36.35
383.891	29.29
384.1	-32.53
384.309	31.06
384.518	32.82
384.727	46.95
384.936	46.95
385.146	-41.36
385.355	1.03
385.564	-64.32
385.773	-7.8
385.982	48.72
386.191	-9.57
386.4	32.82
386.609	23.99
386.818	2.8
387.027	-57.25
387.235	2.8
387.444	-11.33
387.653	-80.22
387.862	29.29
388.071	20.46
388.28	43.42
388.489	22.22
388.698	13.39
388.906	75.21
389.115	9.86
389.324	22.22
389.533	-13.1
389.741	52.25
389.95	59.32
390.159	-9.57
390.368	71.68
390.576	78.74
390.785	32.82
390.994	-9.57
391.202	45.19
391.411	71.68
391.62	-59.02
391.828	-14.87
392.037	-36.06
392.245	11.63
392.454	46.95
392.662	31.06
392.871	23.99
393.08	13.39
393.288	-0.74
393.497	108.77
393.705	11.63
393.913	8.1
394.122	-60.79
394.33	-36.06
394.539	68.15
394.747	52.25
394.956	96.41
395.164	54.02
395.372	-7.8
395.581	-32.53
395.789	-23.7
395.997	-4.27
396.206	13.39
396.414	9.86
396.622	22.22
396.831	27.52
397.039	-30.76
397.247	45.19
397.455	1.03
397.663	-2.5
397.872	16.93
398.08	98.17
398.288	-30.76
398.496	-6.03
398.704	-0.74
398.912	46.95
399.121	87.57
399.329	34.59
399.537	68.15
399.745	41.65
399.953	73.44
400.161	64.61
400.369	105.24
400.577	2.8
400.785	16.93
400.993	64.61
401.201	82.28
401.409	-0.74
401.617	71.68
401.825	117.6
402.033	64.61
402.24	55.78
402.448	154.69
402.656	170.59
402.864	303.05
403.072	774.63
403.28	2083.38
403.487	3835.46
403.695	4730.92
403.903	5064.74
404.111	4379.45
404.319	3810.73
404.526	3167.83
404.734	2546.13
404.942	1843.18
405.149	1221.48
405.357	739.3
405.565	516.76
405.772	290.69
405.98	144.09
406.188	225.34
406.395	246.53
406.603	326.01
406.81	439.05
407.018	548.55
407.226	515
407.433	380.76
407.641	315.41
407.848	255.36
408.056	331.31
408.263	190.01
408.471	182.95
408.678	91.11
408.885	177.65
409.093	144.09
409.3	87.57
409.508	151.16
409.715	129.96
409.922	128.2
410.13	128.2
410.337	212.97
410.544	234.17
410.752	107
410.959	177.65
411.166	159.99
411.373	50.48
411.581	145.86
411.788	220.04
411.995	191.78
412.202	154.69
412.41	128.2
412.617	204.14
412.824	188.25
413.031	262.43
413.238	218.27
413.445	177.65
413.652	158.22
413.859	271.26
414.067	244.77
414.274	260.66
414.481	273.03
414.688	223.57
414.895	181.18
415.102	260.66
415.309	295.99
415.516	253.6
415.723	299.52
415.929	281.86
416.136	257.13
416.343	313.65
416.55	225.34
416.757	265.96
416.964	281.86
417.171	361.34
417.378	322.48
417.584	295.99
417.791	359.57
417.998	235.94
418.205	308.35
418.412	292.45
418.618	306.58
418.825	370.17
419.032	297.75
419.239	295.99
419.445	308.35
419.652	322.48
419.859	315.41
420.065	343.67
420.272	348.97
420.478	317.18
420.685	257.13
420.892	423.15
421.098	387.83
421.305	431.98
421.511	447.88
421.718	431.98
421.924	387.83
422.131	409.02
422.337	375.47
422.544	439.05
422.75	492.04
422.957	405.49
423.163	507.93
423.37	467.31
423.576	421.39
423.782	454.94
423.989	460.24
424.195	483.2
424.401	598.01
424.608	437.28
424.814	559.15
425.02	541.49
425.227	502.63
425.433	575.05
425.639	507.93
425.845	605.07
426.052	560.92
426.258	523.83
426.464	566.22
426.67	617.44
426.876	734
427.083	601.54
427.289	534.42
427.495	598.01
427.701	608.6
427.907	709.28
428.113	658.06
428.319	582.11
428.525	628.03
428.731	658.06
428.937	658.06
429.143	650.99
429.349	703.98
429.555	741.07
429.761	707.51
429.967	725.17
430.173	746.37
430.379	673.95
430.585	663.36
430.791	721.64
430.997	702.21
431.203	776.39
431.408	820.55
431.614	832.91
431.82	877.07
432.026	760.5
432.232	762.26
432.437	919.46
432.643	942.42
432.849	915.92
433.055	977.74
433.26	1002.47
433.466	1078.41
433.672	1244.44
433.877	1564.12
434.083	1816.69
434.289	3206.69
434.494	8738.44
434.7	16260.7
434.906	21128.36
435.111	21771.26
435.317	19734.83
435.522	17216.22
435.728	15019.06
435.933	12567.57
436.139	10091.35
436.344	8153.83
436.55	6078.54
436.755	4407.71
436.961	3128.98
437.166	2042.76
437.372	1558.82
437.577	1304.49
437.782	1274.46
437.988	1221.48
438.193	1191.45
438.398	1062.52
438.604	1055.45
438.809	1011.3
439.014	1020.13
439.22	963.61
439.425	1043.09
439.63	1000.7
439.835	1032.49
440.041	1014.83
440.246	1000.7
440.451	1027.19
440.656	970.68
440.861	1081.95
441.067	1020.13
441.272	1020.13
441.477	961.85
441.682	1057.22
441.887	1043.09
442.092	937.12
442.297	887.66
442.502	979.51
442.707	953.01
442.912	995.4
443.117	1062.52
443.322	991.87
443.527	1066.05
443.732	1122.57
443.937	942.42
444.142	1074.88
444.347	1007.77
444.552	981.27
444.757	1016.6
444.962	1050.16
445.166	997.17
445.371	1055.45
445.576	988.34
445.781	1073.12
445.986	1016.6
446.191	1025.43
446.395	1060.75
446.6	1090.78
446.805	995.4
447.01	988.34
447.214	986.57
447.419	972.44
447.624	1046.62
447.828	991.87
448.033	953.01
448.238	1055.45
448.442	1044.86
448.647	975.97
448.851	972.44
449.056	1013.07
449.261	1032.49
449.465	1023.66
449.67	1067.82
449.874	1140.23
450.079	1050.16
450.283	919.46
450.488	998.94
450.692	940.65
450.896	1096.08
451.101	949.48
451.305	975.97
451.51	919.46
451.714	1018.36
451.918	1134.93
452.123	1074.88
452.327	1011.3
452.531	993.64
452.736	1000.7
452.94	1020.13
453.144	947.72
453.349	1039.56
453.553	928.29
453.757	1080.18
453.961	951.25
454.166	993.64
454.37	958.31
454.574	1028.96
454.778	995.4
454.982	889.43
455.186	1034.26
455.39	1051.92
455.595	1002.47
455.799	945.95
456.003	924.75
456.207	979.51
456.411	935.35
456.615	924.75
456.819	917.69
457.023	988.34
457.227	1055.45
457.431	958.31
457.635	928.29
457.839	963.61
458.043	967.14
458.246	990.1
458.45	914.16
458.654	954.78
458.858	958.31
459.062	931.82
459.266	894.73
459.47	930.05
459.673	940.65
459.877	945.95
460.081	931.82
460.285	900.03
460.488	832.91
460.692	901.79
460.896	822.32
461.1	776.39
461.303	873.54
461.507	857.64
461.711	815.25
461.914	845.28
462.118	850.57
462.321	882.37
462.525	824.08
462.729	887.66
462.932	818.78
463.136	877.07
463.339	786.99
463.543	892.96
463.746	942.42
463.95	783.46
464.153	785.22
464.357	908.86
464.56	901.79
464.764	901.79
464.967	832.91
465.17	838.21
465.374	854.11
465.577	875.3
465.78	917.69
465.984	854.11
466.187	871.77
466.39	861.17
466.594	847.04
466.797	871.77
467	931.82
467.203	947.72
467.407	924.75
467.61	794.06
467.813	905.33
468.016	836.44
468.219	711.04
468.423	779.93
468.626	852.34
468.829	771.1
469.032	774.63
469.235	744.6
469.438	845.28
469.641	790.52
469.844	802.89
470.047	677.49
470.25	696.91
470.453	635.1
470.656	765.8
470.859	825.85
471.062	741.07
471.265	783.46
471.468	769.33
471.671	764.03
471.874	801.12
472.077	829.38
472.28	734
472.483	857.64
472.685	735.77
472.888	802.89
473.091	764.03
473.294	815.25
473.497	820.55
473.699	799.35
473.902	786.99
474.105	711.04
474.308	714.58
474.51	711.04
474.713	760.5
474.916	746.37
475.118	808.19
475.321	640.4
475.524	698.68
475.726	772.86
475.929	705.75
476.131	735.77
476.334	709.28
476.536	645.69
476.739	764.03
476.942	705.75
477.144	696.91
477.347	739.3
477.549	682.79
477.751	746.37
477.954	673.95
478.156	698.68
478.359	861.17
478.561	779.93
478.764	804.65
478.966	848.81
479.168	818.78
479.371	772.86
479.573	820.55
479.775	832.91
479.978	937.12
480.18	1009.53
480.382	922.99
480.584	975.97
480.787	1066.05
480.989	1147.3
481.191	1143.76
481.393	1126.1
481.595	1350.41
481.797	1401.63
482	1530.56
482.202	1730.14
482.404	1852.01
482.606	1897.93
482.808	2116.94
483.01	2344.78
483.212	2570.86
483.414	2728.05
483.616	2920.57
483.818	3068.93
484.02	3333.86
484.222	3623.51
484.424	3801.9
484.626	4246.98
484.828	4427.14
485.03	4644.38
485.232	5036.48
485.434	5151.28
485.636	5483.33
485.837	5647.58
486.039	5790.65
486.241	6092.67
486.443	6161.55
486.645	6182.74
486.847	6207.47
487.048	6364.66
487.25	6306.38
487.452	6239.26
487.653	6228.67
487.855	6354.07
488.057	6339.94
488.259	6375.26
488.46	6175.68
488.662	6396.46
488.863	6158.02
489.065	6253.39
489.267	5967.27
489.468	5967.27
489.67	5893.09
489.871	5767.69
490.073	5797.71
490.274	5739.43
490.476	5576.94
490.677	5691.74
490.879	5536.31
491.08	5548.68
491.282	5405.61
491.483	5334.97
491.685	5153.05
491.886	5174.24
492.087	5161.88
492.289	5002.92
492.49	4886.35
492.691	4967.6
492.893	4815.7
493.094	4697.37
493.295	4692.07
493.497	4541.94
493.698	4416.54
493.899	4393.58
494.1	4146.31
494.302	4261.11
494.503	3891.98
494.704	3932.6
494.905	3849.59
495.106	3927.3
495.307	3653.54
495.509	3750.68
495.71	3662.37
495.911	3641.18
496.112	3658.84
496.313	3642.94
496.514	3612.92
496.715	3642.94
496.916	3519.31
497.117	3471.62
497.318	3323.26
497.519	3346.22
497.72	3150.17
497.921	3169.6
498.122	2989.45
498.323	2841.09
498.524	2782.8
498.724	2542.6
498.925	2479.01
499.126	2364.21
499.327	2219.38
499.528	2118.71
499.729	1952.69
499.929	1885.57
500.13	1811.39
500.331	1714.25
500.532	1595.91
500.732	1484.64
500.933	1355.71
501.134	1410.46
501.334	1239.14
501.535	1278
501.736	1131.4
501.936	1062.52
502.137	1013.07
502.338	997.17
502.538	914.16
502.739	870
502.939	831.15
503.14	870
503.34	799.35
503.541	831.15
503.741	820.55
503.942	705.75
504.142	700.45
504.343	693.38
504.543	751.67
504.744	587.41
504.944	677.49
505.144	781.69
505.345	619.2
505.545	668.66
505.745	506.16
505.946	769.33
506.146	596.24
506.346	578.58
506.547	525.59
506.747	592.71
506.947	550.32
507.147	576.81
507.347	631.57
507.548	598.01
507.748	536.19
507.948	592.71
508.148	585.64
508.348	552.09
508.548	645.69
508.749	536.19
508.949	553.85
509.149	635.1
509.349	559.15
509.549	594.47
509.749	603.31
509.949	654.53
510.149	677.49
510.349	626.27
510.549	566.22
510.749	583.88
510.949	617.44
511.149	567.98
511.349	557.38
511.548	594.47
511.748	603.31
511.948	534.42
512.148	626.27
512.348	589.18
512.548	795.82
512.747	650.99
512.947	525.59
513.147	571.51
513.347	583.88
513.546	624.5
513.746	601.54
513.946	633.33
514.146	624.5
514.345	575.05
514.545	629.8
514.745	636.86
514.944	546.79
515.144	569.75
515.343	622.73
515.543	605.07
515.743	569.75
515.942	576.81
516.142	670.42
516.341	619.2
516.541	582.11
516.74	578.58
516.94	649.23
517.139	476.14
517.338	564.45
517.538	492.04
517.737	589.18
517.937	486.74
518.136	559.15
518.335	486.74
518.535	564.45
518.734	463.78
518.933	497.33
519.133	463.78
519.332	416.09
519.531	440.82
519.731	451.41
519.93	523.83
520.129	366.63
520.328	504.4
520.527	379
520.727	416.09
520.926	403.72
521.125	352.5
521.324	386.06
521.523	401.96
521.722	338.38
521.921	400.19
522.12	352.5
522.319	423.15
522.518	433.75
522.717	391.36
522.916	281.86
523.115	384.3
523.314	313.65
523.513	421.39
523.712	315.41
523.911	331.31
524.11	470.84
524.309	403.72
524.508	271.26
524.707	370.17
524.906	384.3
525.104	352.5
525.303	329.54
525.502	407.26
525.701	414.32
525.9	431.98
526.098	366.63
526.297	345.44
526.496	310.12
526.695	317.18
526.893	403.72
527.092	405.49
527.291	387.83
527.489	359.57
527.688	380.76
527.886	357.8
528.085	318.95
528.284	320.71
528.482	310.12
528.681	292.45
528.879	278.32
529.078	326.01
529.276	294.22
529.475	377.23
529.673	262.43
529.872	340.14
530.07	329.54
530.269	306.58
530.467	393.13
530.665	357.8
530.864	424.92
531.062	366.63
531.261	382.53
531.459	447.88
531.657	444.35
531.855	545.02
532.054	652.76
532.252	1000.7
532.45	1103.14
532.649	1267.4
532.847	1184.39
533.045	1269.16
533.243	1157.89
533.441	1300.96
533.639	1237.37
533.838	1186.15
534.036	1179.09
534.234	1027.19
534.432	1074.88
534.63	1149.06
534.828	1083.71
535.026	1002.47
535.224	1071.35
535.422	1064.29
535.62	1203.82
535.818	1297.42
536.016	1249.74
536.214	1362.77
536.412	1546.46
536.61	1770.77
536.808	1956.22
537.006	2245.88
537.204	2606.18
537.401	2765.14
537.599	3273.81
537.797	3598.79
537.995	3952.03
538.193	4421.84
538.391	4677.94
538.588	5098.3
538.786	5476.26
538.984	5889.55
539.182	6576.61
539.379	7200.08
539.577	7692.85
539.775	8245.67
539.972	8777.3
540.17	9925.33
540.368	11089.26
540.565	12818.37
540.763	14981.97
540.96	17645.41
541.158	20331.8
541.355	23991.38
541.553	26759.02
541.75	29109.84
541.948	31172.76
542.145	32628.12
542.343	34369.59
542.54	35807.28
542.738	36621.5
542.935	37684.76
543.133	38052.13
543.33	38336.49
543.527	37518.74
543.725	37725.38
543.922	36360.11
544.119	35685.42
544.317	34798.78
544.514	33641.92
544.711	33207.43
544.908	36870.54
545.106	43354.27
545.303	45743.95
545.5	42963.94
545.697	41256.02
545.895	38615.55
546.092	35348.07
546.289	31801.53
546.486	28154.32
546.683	25139.41
546.88	22239.31
547.077	20227.6
547.274	17606.55
547.471	14897.19
547.668	13565.48
547.865	12126.02
548.063	11297.67
548.259	11092.79
548.456	11059.23
548.653	10969.16
548.85	10707.76
549.047	10502.88
549.244	10163.77
549.441	9951.82
549.638	9822.89
549.835	9377.81
550.032	8964.52
550.229	8590.08
550.425	8364.01
550.622	8203.28
550.819	7842.98
551.016	7671.65
551.212	7646.93
551.409	7530.36
551.606	7493.27
551.803	6949.28
551.999	7064.08
552.196	6807.98
552.393	6608.4
552.589	6350.53
552.786	6166.85
552.983	5675.84
553.179	5322.6
553.376	4868.69
553.572	4499.55
553.769	3983.82
553.965	3717.12
554.162	3208.46
554.358	3007.11
554.555	2602.65
554.751	2447.22
554.948	2049.83
555.144	1844.95
555.341	1659.5
555.537	1629.47
555.733	1336.28
555.93	1311.55
556.126	1237.37
556.322	1249.74
556.519	1080.18
556.715	1046.62
556.911	974.21
557.108	937.12
557.304	875.3
557.5	892.96
557.696	827.61
557.893	751.67
558.089	695.15
558.285	719.88
558.481	728.71
558.677	746.37
558.873	605.07
559.07	682.79
559.266	539.72
559.462	598.01
559.658	525.59
559.854	504.4
560.05	543.25
560.246	555.62
560.442	624.5
560.638	502.63
560.834	612.14
561.03	486.74
561.226	543.25
561.422	513.23
561.618	502.63
561.813	462.01
562.009	405.49
562.205	490.27
562.401	416.09
562.597	537.96
562.793	442.58
562.988	446.11
563.184	386.06
563.38	398.43
563.576	326.01
563.772	324.25
563.967	403.72
564.163	380.76
564.359	371.93
564.554	403.72
564.75	324.25
564.946	333.08
565.141	267.73
565.337	356.04
565.532	276.56
565.728	274.79
565.923	333.08
566.119	264.19
566.315	241.23
566.51	294.22
566.706	221.81
566.901	244.77
567.096	297.75
567.292	262.43
567.487	250.07
567.683	318.95
567.878	295.99
568.074	265.96
568.269	315.41
568.464	262.43
568.66	273.03
568.855	303.05
569.05	281.86
569.245	264.19
569.441	220.04
569.636	370.17
569.831	281.86
570.026	338.38
570.222	230.64
570.417	287.16
570.612	311.88
570.807	285.39
571.002	366.63
571.197	278.32
571.393	257.13
571.588	329.54
571.783	403.72
571.978	387.83
572.173	410.79
572.368	417.85
572.563	433.75
572.758	446.11
572.953	409.02
573.148	421.39
573.343	481.44
573.538	552.09
573.733	460.24
573.927	490.27
574.122	539.72
574.317	601.54
574.512	615.67
574.707	477.91
574.902	580.35
575.096	686.32
575.291	732.24
575.486	760.5
575.681	1129.63
575.876	1890.87
576.07	2865.81
576.265	3619.98
576.46	3422.17
576.654	3468.09
576.849	3499.88
577.044	3072.46
577.238	3137.81
577.433	2664.47
577.627	2514.34
577.822	2607.95
578.017	3153.7
578.211	3798.37
578.406	4335.29
578.6	4132.18
578.795	4236.39
578.989	4465.99
579.184	4400.64
579.378	4888.12
579.572	5107.13
579.767	5181.31
579.961	5052.37
580.156	5001.15
580.35	4817.47
580.544	4517.21
580.739	4536.64
580.933	4568.43
581.127	4414.77
581.322	4488.95
581.516	4748.59
581.71	4667.34
581.904	4711.5
582.099	4817.47
582.293	5239.59
582.487	5656.42
582.681	5640.52
582.875	6113.86
583.069	6258.69
583.263	6537.75
583.458	6569.54
583.652	6673.75
583.846	6451.21
584.04	6551.88
584.234	6338.17
584.428	6237.5
584.622	5965.5
584.816	5592.83
585.01	5546.91
585.204	5508.05
585.398	5209.57
585.592	5218.4
585.786	5103.59
585.979	5423.28
586.173	5817.14
586.367	6719.67
586.561	7480.9
586.755	8023.13
586.949	8148.53
587.142	8415.23
587.336	8030.19
587.53	7735.24
587.724	7569.21
587.917	7394.36
588.111	6970.47
588.305	6608.4
588.499	6092.67
588.692	5772.99
588.886	5304.94
589.08	5068.27
589.273	4812.17
589.467	4670.87
589.66	4423.61
589.854	4178.1
590.047	4232.86
590.241	4070.36
590.434	3851.36
590.628	4045.64
590.821	3699.46
591.015	3787.77
591.208	3572.29
591.402	3695.93
591.595	3842.52
591.789	3895.51
591.982	4137.48
592.175	4450.1
592.369	4639.08
592.562	5008.22
592.755	5017.05
592.949	4884.58
593.142	4764.48
593.335	4534.88
593.529	4110.99
593.722	3851.36
593.915	3487.52
594.108	3282.64
594.301	2818.13
594.495	2740.41
594.688	2413.66
594.881	2185.82
595.074	1988.01
595.267	1913.83
595.46	1843.18
595.653	1790.19
595.846	1597.68
596.039	1781.36
596.232	1740.74
596.425	1610.04
596.618	1555.29
596.811	1509.37
597.004	1618.87
597.197	1611.81
597.39	1613.57
597.583	1675.39
597.776	1818.45
597.969	1890.87
598.162	2067.49
598.355	2180.53
598.548	2240.58
598.74	2477.25
598.933	2535.53
599.126	2765.14
599.319	2708.62
599.511	2816.36
599.704	2567.32
599.897	2436.63
600.09	2339.48
600.282	2318.29
600.475	2154.03
600.668	1915.6
600.86	1814.92
601.053	1738.98
601.245	1491.71
601.438	1348.64
601.631	1230.31
601.823	1214.41
602.016	1127.87
602.208	1032.49
602.401	1027.19
602.593	954.78
602.786	878.83
602.978	974.21
603.171	958.31
603.363	1036.03
603.555	1039.56
603.748	1007.77
603.94	974.21
604.133	1076.65
604.325	1013.07
604.517	965.38
604.71	1080.18
604.902	1129.63
605.094	1074.88
605.286	1103.14
605.479	1285.06
605.671	1214.41
605.863	1249.74
606.055	1385.73
606.247	1502.3
606.44	1532.33
606.632	1542.93
606.824	1719.55
607.016	1876.74
607.208	1945.62
607.4	2221.15
607.592	2191.12
607.784	2388.94
607.976	2606.18
608.168	2915.27
608.36	3169.6
608.552	3342.69
608.744	3847.82
608.936	4326.46
609.128	5153.05
609.32	5887.79
609.512	7277.79
609.704	8851.48
609.896	11318.87
610.087	15501.24
610.279	20757.46
610.471	26942.71
610.663	32561
610.855	36508.47
611.046	37105.44
611.238	36882.9
611.43	35471.71
611.622	33422.91
611.813	31144.51
612.005	28913.79
612.197	26001.32
612.388	23655.8
612.58	21140.73
612.772	18722.79
612.963	16594.52
613.155	15006.7
613.346	14042.35
613.538	13014.42
613.729	12283.21
613.921	11709.2
614.112	11633.25
614.304	11062.77
614.495	10527.61
614.687	10084.29
614.878	9255.94
615.07	8593.61
615.261	8226.24
615.452	7507.4
615.644	6998.73
615.835	6472.4
616.026	6105.03
616.218	5677.61
616.409	5216.63
616.6	4916.38
616.792	4819.23
616.983	4441.27
617.174	4269.95
617.365	4017.38
617.557	3944.96
617.748	3858.42
617.939	3916.7
618.13	3794.84
618.321	3831.93
618.512	3847.82
618.703	4095.09
618.894	3886.68
619.086	4155.14
619.277	4215.19
619.468	4322.93
619.659	4375.92
619.85	4642.61
620.041	4589.63
620.232	4806.87
620.423	4824.53
620.613	4808.64
620.804	4812.17
620.995	4637.32
621.186	4656.74
621.377	4545.47
621.568	4418.31
621.759	4360.02
621.95	4215.19
622.14	4133.95
622.331	3989.12
622.522	3713.59
622.713	3688.86
622.903	3627.05
623.094	3706.53
623.285	3464.56
623.475	3376.25
623.666	3441.6
623.857	3536.97
624.047	3330.32
624.238	3346.22
624.429	3213.76
624.619	3307.36
624.81	3058.33
625	3155.47
625.191	2885.24
625.381	2984.15
625.572	2781.04
625.762	2705.09
625.953	2705.09
626.143	2607.95
626.334	2533.77
626.524	2574.39
626.715	2436.63
626.905	2351.85
627.095	2332.42
627.286	2358.91
627.476	2406.6
627.666	2397.77
627.857	2355.38
628.047	2431.33
628.237	2355.38
628.427	2404.83
628.618	2456.05
628.808	2413.66
628.998	2364.21
629.188	2632.67
629.378	2717.45
629.569	2906.44
629.759	3234.95
629.949	3563.46
630.139	4093.32
630.329	4432.44
630.519	4992.32
630.709	5082.4
630.899	5236.06
631.089	4780.38
631.279	4561.37
631.469	4110.99
631.659	3876.08
631.849	3289.7
632.039	2864.05
632.229	2574.39
632.419	2118.71
632.609	1829.05
632.799	1451.08
632.988	1315.09
633.178	1194.98
633.368	974.21
633.558	931.82
633.748	870
633.937	845.28
634.127	728.71
634.317	620.97
634.507	645.69
634.696	559.15
634.886	656.29
635.076	605.07
635.265	515
635.455	523.83
635.645	460.24
635.834	557.38
636.024	606.84
636.213	433.75
636.403	488.5
636.592	555.62
636.782	447.88
636.971	522.06
637.161	453.18
637.35	439.05
637.54	504.4
637.729	382.53
637.919	324.25
638.108	393.13
638.297	453.18
638.487	304.82
638.676	375.47
638.866	359.57
639.055	345.44
639.244	318.95
639.433	340.14
639.623	375.47
639.812	356.04
640.001	324.25
640.19	318.95
640.38	470.84
640.569	304.82
640.758	350.74
640.947	317.18
641.136	318.95
641.325	356.04
641.514	329.54
641.703	419.62
641.893	324.25
642.082	424.92
642.271	424.92
642.46	409.02
642.649	431.98
642.838	454.94
643.027	354.27
643.215	318.95
643.404	394.89
643.593	460.24
643.782	417.85
643.971	435.52
644.16	375.47
644.349	401.96
644.538	467.31
644.726	424.92
644.915	419.62
645.104	470.84
645.293	479.67
645.481	446.11
645.67	357.8
645.859	357.8
646.048	511.46
646.236	419.62
646.425	428.45
646.614	387.83
646.802	394.89
646.991	435.52
647.179	410.79
647.368	324.25
647.557	405.49
647.745	409.02
647.934	458.48
648.122	435.52
648.311	500.87
648.499	403.72
648.687	412.56
648.876	578.58
649.064	603.31
649.253	624.5
649.441	742.84
649.63	1000.7
649.818	1193.22
650.006	1276.23
650.195	1297.42
650.383	1244.44
650.571	1200.28
650.759	1232.07
650.948	1126.1
651.136	1023.66
651.324	983.04
651.512	804.65
651.7	813.48
651.889	714.58
652.077	592.71
652.265	707.51
652.453	719.88
652.641	601.54
652.829	622.73
653.017	635.1
653.205	548.55
653.393	500.87
653.581	523.83
653.769	474.37
653.957	447.88
654.145	440.82
654.333	409.02
654.521	241.23
654.709	343.67
654.897	326.01
655.085	294.22
655.273	246.53
655.461	315.41
655.648	299.52
655.836	184.72
656.024	295.99
656.212	211.21
656.399	190.01
656.587	212.97
656.775	283.62
656.963	288.92
657.15	359.57
657.338	285.39
657.526	290.69
657.713	311.88
657.901	285.39
658.089	299.52
658.276	273.03
658.464	212.97
658.651	244.77
658.839	177.65
659.026	248.3
659.214	235.94
659.401	244.77
659.589	250.07
659.776	163.52
659.964	283.62
660.151	103.47
660.338	186.48
660.526	163.52
660.713	276.56
660.901	220.04
661.088	352.5
661.275	304.82
661.463	499.1
661.65	552.09
661.837	537.96
662.024	649.23
662.212	633.33
662.399	695.15
662.586	682.79
662.773	594.47
662.96	589.18
663.147	536.19
663.335	530.89
663.522	398.43
663.709	371.93
663.896	428.45
664.083	341.91
664.27	326.01
664.457	315.41
664.644	317.18
664.831	235.94
665.018	258.9
665.205	276.56
665.392	253.6
665.579	313.65
665.766	326.01
665.953	338.38
666.139	287.16
666.326	292.45
666.513	287.16
666.7	287.16
666.887	292.45
667.074	274.79
667.26	273.03
667.447	303.05
667.634	267.73
667.821	294.22
668.007	334.84
668.194	352.5
668.381	313.65
668.567	324.25
668.754	278.32
668.94	371.93
669.127	317.18
669.314	269.49
669.5	193.55
669.687	198.85
669.873	218.27
670.06	317.18
670.246	326.01
670.433	258.9
670.619	265.96
670.806	303.05
670.992	161.75
671.178	209.44
671.365	182.95
671.551	264.19
671.738	239.47
671.924	239.47
672.11	221.81
672.297	204.14
672.483	163.52
672.669	186.48
672.855	193.55
673.042	234.17
673.228	260.66
673.414	251.83
673.6	227.1
673.786	184.72
673.973	149.39
674.159	108.77
674.345	204.14
674.531	174.12
674.717	138.79
674.903	78.74
675.089	110.53
675.275	175.88
675.461	168.82
675.647	186.48
675.833	202.38
676.019	119.37
676.205	232.4
676.391	239.47
676.577	184.72
676.763	161.75
676.949	122.9
677.134	239.47
677.32	228.87
677.506	269.49
677.692	288.92
677.878	220.04
678.064	165.29
678.249	216.51
678.435	255.36
678.621	250.07
678.806	269.49
678.992	241.23
679.178	232.4
679.363	273.03
679.549	255.36
679.735	234.17
679.92	230.64
680.106	218.27
680.291	235.94
680.477	230.64
680.663	220.04
680.848	161.75
681.034	214.74
681.219	198.85
681.404	172.35
681.59	244.77
681.775	253.6
681.961	216.51
682.146	152.92
682.332	167.05
682.517	154.69
682.702	288.92
682.888	129.96
683.073	190.01
683.258	271.26
683.443	151.16
683.629	197.08
683.814	177.65
683.999	182.95
684.184	198.85
684.37	117.6
684.555	133.5
684.74	121.13
684.925	87.57
685.11	99.94
685.295	140.56
685.48	144.09
685.665	198.85
685.85	191.78
686.035	170.59
686.22	147.63
686.405	315.41
686.59	393.13
686.775	393.13
686.96	446.11
687.145	479.67
687.33	454.94
687.515	550.32
687.7	515
687.885	456.71
688.07	454.94
688.254	403.72
688.439	334.84
688.624	345.44
688.809	295.99
688.993	318.95
689.178	198.85
689.363	255.36
689.548	175.88
689.732	175.88
689.917	142.33
690.102	138.79
690.286	191.78
690.471	165.29
690.655	-4.27
690.84	117.6
691.025	45.19
691.209	181.18
691.394	57.55
691.578	121.13
691.763	105.24
691.947	107
692.132	80.51
692.316	135.26
692.5	156.46
692.685	221.81
692.869	269.49
693.054	322.48
693.238	375.47
693.422	361.34
693.607	368.4
693.791	382.53
693.975	267.73
694.159	195.31
694.344	191.78
694.528	216.51
694.712	149.39
694.896	122.9
695.081	41.65
695.265	71.68
695.449	45.19
695.633	61.08
695.817	32.82
696.001	62.85
696.185	103.47
696.369	-20.16
696.553	55.78
696.737	69.91
696.921	84.04
697.105	172.35
697.289	-59.02
697.473	6.33
697.657	-4.27
697.841	6.33
698.025	22.22
698.209	23.99
698.393	-57.25
698.577	11.63
698.76	9.86
698.944	11.63
699.128	-44.89
699.312	-7.8
699.496	105.24
699.679	18.69
699.863	16.93
700.047	73.44
700.23	-36.06
700.414	59.32
700.598	-120.84
700.781	46.95
700.965	1.03
701.149	87.57
701.332	18.69
701.516	98.17
701.699	91.11
701.883	159.99
702.066	64.61
702.25	119.37
702.433	48.72
702.617	66.38
702.8	69.91
702.984	110.53
703.167	147.63
703.35	207.68
703.534	75.21
703.717	161.75
703.901	129.96
704.084	285.39
704.267	202.38
704.45	182.95
704.634	200.61
704.817	336.61
705	322.48
705.183	370.17
705.367	444.35
705.55	481.44
705.733	596.24
705.916	726.94
706.099	898.26
706.282	960.08
706.465	831.15
706.649	972.44
706.832	931.82
707.015	880.6
707.198	758.73
707.381	758.73
707.564	762.26
707.747	825.85
707.93	825.85
708.113	1138.47
708.295	1127.87
708.478	1309.79
708.661	1143.76
708.844	981.27
709.027	922.99
709.21	854.11
709.393	760.5
709.575	582.11
709.758	493.8
709.941	465.54
710.124	451.41
710.306	433.75
710.489	364.87
710.672	504.4
710.854	380.76
711.037	599.77
711.22	707.51
711.402	808.19
711.585	760.5
711.768	900.03
711.95	850.57
712.133	891.2
712.315	781.69
712.498	695.15
712.68	537.96
712.863	428.45
713.045	382.53
713.228	310.12
713.41	202.38
713.592	248.3
713.775	126.43
713.957	152.92
714.139	193.55
714.322	80.51
714.504	124.66
714.686	80.51
714.869	16.93
715.051	103.47
715.233	25.76
715.415	-18.4
715.598	39.89
715.78	39.89
715.962	13.39
716.144	9.86
716.326	1.03
716.509	119.37
716.691	105.24
716.873	76.98
717.055	-30.76
717.237	64.61
717.419	20.46
717.601	48.72
717.783	13.39
717.965	55.78
718.147	-44.89
718.329	31.06
718.511	-7.8
718.693	27.52
718.875	84.04
719.056	20.46
719.238	1.03
719.42	13.39
719.602	-14.87
719.784	-0.74
719.966	-39.59
720.147	-27.23
720.329	-46.66
720.511	20.46
720.692	-18.4
720.874	50.48
721.056	11.63
721.238	36.35
721.419	55.78
721.601	-2.5
721.782	-13.1
721.964	-64.32
722.146	61.08
722.327	2.8
722.509	-0.74
722.69	25.76
722.872	-11.33
723.053	6.33
723.235	22.22
723.416	-29
723.598	-36.06
723.779	15.16
723.96	23.99
724.142	50.48
724.323	23.99
724.504	31.06
724.686	54.02
724.867	4.56
725.048	-9.57
725.23	82.28
725.411	22.22
725.592	62.85
725.773	34.59
725.955	161.75
726.136	48.72
726.317	4.56
726.498	13.39
726.679	6.33
726.86	-64.32
727.041	13.39
727.223	-4.27
727.404	59.32
727.585	34.59
727.766	-36.06
727.947	-4.27
728.128	-34.29
728.309	-30.76
728.49	-29
728.671	2.8
728.851	1.03
729.032	-6.03
729.213	-21.93
729.394	9.86
729.575	18.69
729.756	39.89
729.937	22.22
730.117	34.59
730.298	46.95
730.479	55.78
730.66	-29
730.84	32.82
731.021	27.52
731.202	-11.33
731.382	-18.4
731.563	-43.12
731.744	-18.4
731.924	-29
732.105	-41.36
732.286	11.63
732.466	16.93
732.647	18.69
732.827	-4.27
733.008	29.29
733.188	-25.46
733.369	-37.83
733.549	-46.66
733.73	11.63
733.91	-16.63
734.09	-66.09
734.271	6.33
734.451	1.03
734.631	-43.12
734.812	-21.93
734.992	-14.87
735.172	31.06
735.353	-76.68
735.533	-7.8
735.713	-36.06
735.893	9.86
736.074	-48.42
736.254	-20.16
736.434	45.19
736.614	2.8
736.794	8.1
736.974	-87.28
737.154	-20.16
737.335	22.22
737.515	-16.63
737.695	22.22
737.875	55.78
738.055	-34.29
738.235	18.69
738.415	-74.92
738.595	-30.76
738.775	-99.64
738.954	-13.1
739.134	2.8
739.314	-34.29
739.494	20.46
739.674	-18.4
739.854	-73.15
740.034	-27.23
740.213	-34.29
740.393	-0.74
740.573	-44.89
740.753	-0.74
740.932	1.03
741.112	-73.15
741.292	-57.25
741.471	20.46
741.651	91.11
741.831	-48.42
742.01	16.93
742.19	59.32
742.37	-39.59
742.549	16.93
742.729	46.95
742.908	46.95
743.088	22.22
743.267	-48.42
743.447	22.22
743.626	76.98
743.805	-18.4
743.985	1.03
744.164	-9.57
744.344	11.63
744.523	2.8
744.702	8.1
744.882	36.35
745.061	-21.93
745.24	48.72
745.42	-83.75
745.599	-44.89
745.778	-55.49
745.957	2.8
746.137	31.06
746.316	4.56
746.495	-7.8
746.674	-41.36
746.853	-34.29
747.032	-37.83
747.211	101.7
747.39	-32.53
747.569	-69.62
747.749	-44.89
747.928	13.39
748.107	-44.89
748.286	-13.1
748.464	-16.63
748.643	52.25
748.822	-53.72
749.001	2.8
749.18	71.68
749.359	126.43
749.538	11.63
749.717	-34.29
749.896	46.95
750.074	1.03
750.253	31.06
750.432	-4.27
750.611	-30.76
750.789	31.06
750.968	-23.7
751.147	-51.96
751.325	-9.57
751.504	45.19
751.683	43.42
751.861	-131.44
752.04	-4.27
752.219	-67.85
752.397	18.69
752.576	57.55
752.754	61.08
752.933	-6.03
753.111	32.82
753.29	-32.53
753.468	43.42
753.647	-43.12
753.825	-23.7
754.003	-67.85
754.182	-37.83
754.36	1.03
754.539	-39.59
754.717	-29
754.895	-41.36
755.074	20.46
755.252	-41.36
755.43	22.22
755.608	-39.59
755.787	15.16
755.965	-0.74
756.143	-9.57
756.321	15.16
756.499	-2.5
756.677	-27.23
756.856	-32.53
757.034	-46.66
757.212	8.1
757.39	-7.8
757.568	25.76
757.746	78.74
757.924	32.82
758.102	-9.57
758.28	-11.33
758.458	-7.8
758.636	18.69
758.814	76.98
758.992	151.16
759.169	191.78
759.347	112.3
759.525	129.96
759.703	20.46
759.881	8.1
760.059	78.74
760.236	-7.8
760.414	39.89
760.592	-32.53
760.77	-30.76
760.947	43.42
761.125	6.33
761.303	144.09
761.48	8.1
761.658	13.39
761.835	-9.57
762.013	41.65
762.191	4.56
762.368	61.08
762.546	76.98
762.723	-18.4
762.901	45.19
763.078	52.25
763.256	62.85
763.433	-0.74
763.611	1.03
763.788	-48.42
763.965	-2.5
764.143	34.59
764.32	2.8
764.497	75.21
764.675	-2.5
764.852	-18.4
765.029	-18.4
765.207	-6.03
765.384	13.39
765.561	-78.45
765.738	-48.42
765.915	-27.23
766.093	46.95
766.27	27.52
766.447	76.98
766.624	22.22
766.801	8.1
766.978	-32.53
767.155	45.19
767.332	-4.27
767.509	61.08
767.686	43.42
767.863	-23.7
768.04	-13.1
768.217	4.56
768.394	-0.74
768.571	32.82
768.748	-57.25
768.925	-27.23
769.102	38.12
769.279	-67.85
769.455	-145.56
769.632	48.72
769.809	43.42
769.986	-16.63
770.163	-20.16
770.339	1.03
770.516	-89.05
770.693	-41.36
770.869	16.93
771.046	-16.63
771.223	54.02
771.399	-83.75
771.576	68.15
771.752	-27.23
771.929	-18.4
772.106	52.25
772.282	-44.89
772.459	-46.66
772.635	-9.57
772.812	43.42
772.988	-6.03
773.165	16.93
773.341	-80.22
773.517	-4.27
773.694	-87.28
773.87	1.03
774.046	-34.29
774.223	27.52
774.399	-48.42
774.575	-36.06
774.752	11.63
774.928	50.48
775.104	31.06
775.28	-87.28
775.457	-21.93
775.633	-4.27
775.809	-23.7
775.985	15.16
776.161	31.06
776.337	-36.06
776.513	-13.1
776.69	-67.85
776.866	39.89
777.042	-55.49
777.218	-39.59
777.394	4.56
777.57	-55.49
777.746	-74.92
777.922	-87.28
778.097	4.56
778.273	-50.19
778.449	-90.81
778.625	-16.63
778.801	-36.06
778.977	-32.53
779.153	-43.12
779.328	-83.75
779.504	48.72
779.68	-21.93
779.856	15.16
780.031	-43.12
780.207	18.69
780.383	-43.12
780.559	-92.58
780.734	11.63
780.91	-7.8
781.085	6.33
781.261	-92.58
781.437	-29
781.612	-7.8
781.788	-43.12
781.963	-60.79
782.139	-46.66
782.314	23.99
782.49	-78.45
782.665	-57.25
782.841	-87.28
783.016	-16.63
783.191	57.55
783.367	-60.79
783.542	-21.93
783.717	-21.93
783.893	27.52
784.068	-66.09
784.243	-20.16
784.419	62.85
784.594	-7.8
784.769	6.33
784.944	6.33
785.12	-23.7
785.295	34.59
785.47	13.39
785.645	-21.93
785.82	9.86
785.995	-11.33
786.17	-4.27
786.345	-18.4
786.52	9.86
786.695	29.29
786.87	-9.57
787.045	29.29
787.22	22.22
787.395	-51.96
787.57	-76.68
787.745	-53.72
787.92	-37.83
788.095	-55.49
788.27	-36.06
788.445	-9.57
788.619	29.29
788.794	-57.25
788.969	-73.15
789.144	-113.77
789.319	-29
789.493	-73.15
789.668	-131.44
789.843	23.99
790.017	-11.33
790.192	41.65
790.367	6.33
790.541	-66.09
790.716	-41.36
790.89	-37.83
791.065	-57.25
791.24	20.46
791.414	-64.32
791.589	-37.83
791.763	-50.19
791.938	76.98
792.112	-18.4
792.286	-92.58
792.461	-142.03
792.635	-0.74
792.81	-50.19
792.984	-6.03
793.158	6.33
793.333	-14.87
793.507	-11.33
793.681	-39.59
793.856	-27.23
794.03	-46.66
794.204	2.8
794.378	-55.49
794.552	29.29
794.727	39.89
794.901	32.82
795.075	1.03
795.249	-51.96
795.423	11.63
795.597	-14.87
795.771	-50.19
795.945	-27.23
796.119	-29
796.293	13.39
796.467	-89.05
796.641	48.72
796.815	-27.23
796.989	-29
797.163	-0.74
797.337	-16.63
797.511	-11.33
797.685	-104.94
797.859	-50.19
798.032	-7.8
798.206	-57.25
798.38	-2.5
798.554	-76.68
798.727	-103.18
798.901	-64.32
799.075	-71.38
799.249	-21.93
799.422	-90.81
799.596	-51.96
799.77	-11.33
799.943	98.17
800.117	-50.19
800.29	-30.76
800.464	27.52
800.637	36.35
800.811	-53.72
800.985	-0.74
801.158	31.06
801.331	-18.4
801.505	-27.23
801.678	-9.57
801.852	-4.27
802.025	29.29
802.199	4.56
802.372	-48.42
802.545	-60.79
802.719	11.63
802.892	-90.81
803.065	-4.27
803.238	-20.16
803.412	-87.28
803.585	-46.66
803.758	-27.23
803.931	-30.76
804.104	-34.29
804.278	-99.64
804.451	64.61
804.624	-62.55
804.797	-29
804.97	-94.34
805.143	-29
805.316	-55.49
805.489	-13.1
805.662	84.04
805.835	-50.19
806.008	-113.77
806.181	-9.57
806.354	-37.83
806.527	62.85
806.7	-36.06
806.873	-21.93
807.045	38.12
807.218	80.51
807.391	-14.87
807.564	-78.45
807.737	48.72
807.909	-9.57
808.082	-48.42
808.255	-11.33
808.428	-50.19
808.6	-0.74
808.773	-25.46
808.946	36.35
809.118	22.22
809.291	-18.4
809.463	34.59
809.636	-34.29
809.809	99.94
809.981	4.56
810.154	89.34
810.326	-14.87
810.499	110.53
810.671	39.89
810.843	38.12
811.016	52.25
811.188	-0.74
811.361	-11.33
811.533	59.32
811.705	-9.57
811.878	29.29
812.05	16.93
812.222	82.28
812.395	-62.55
812.567	-7.8
812.739	15.16
812.911	64.61
813.083	62.85
813.256	8.1
813.428	-57.25
813.6	39.89
813.772	-2.5
813.944	-46.66
814.116	-13.1
814.288	-50.19
814.46	-92.58
814.632	9.86
814.804	43.42
814.976	-2.5
815.148	6.33
815.32	20.46
815.492	-44.89
815.664	-73.15
815.836	27.52
816.008	-43.12
816.18	-85.51
816.352	-53.72
816.523	2.8
816.695	13.39
816.867	-92.58
817.039	62.85
817.21	-6.03
817.382	-9.57
817.554	-53.72
817.726	31.06
817.897	-25.46
818.069	-44.89
818.241	-25.46
818.412	-9.57
818.584	1.03
818.755	61.08
818.927	-53.72
819.098	-6.03
819.27	41.65
819.441	-9.57
819.613	-50.19
819.784	-37.83
819.956	11.63
820.127	-4.27
820.299	-60.79
820.47	41.65
820.641	-67.85
820.813	-39.59
820.984	-27.23
821.155	39.89
821.327	-4.27
821.498	-44.89
821.669	36.35
821.84	-62.55
822.012	-50.19
822.183	22.22
822.354	87.57
822.525	22.22
822.696	-27.23
822.867	-14.87
823.039	-2.5
823.21	-27.23
823.381	8.1
823.552	-73.15
823.723	-29
823.894	-18.4
824.065	36.35
824.236	-2.5
824.407	-113.77
824.578	-36.06
824.749	-69.62
824.919	57.55
825.09	-43.12
825.261	-60.79
825.432	-32.53
825.603	-66.09
825.774	-44.89
825.944	-78.45
826.115	-30.76
826.286	-41.36
826.457	-29
826.627	-11.33
826.798	-18.4
826.969	27.52
827.139	57.55
827.31	-85.51
827.481	-13.1
827.651	-2.5
827.822	-18.4
827.992	-16.63
828.163	31.06
828.333	-27.23
828.504	2.8
828.674	-13.1
828.845	6.33
829.015	-2.5
829.186	-23.7
829.356	-16.63
829.527	8.1
829.697	-4.27
829.867	-50.19
830.038	-11.33
830.208	55.78
830.378	50.48
830.548	11.63
830.719	20.46
830.889	-51.96
831.059	-32.53
831.229	-90.81
831.399	2.8
831.57	-46.66
831.74	66.38
831.91	-119.07
832.08	-37.83
832.25	22.22
832.42	-44.89
832.59	-55.49
832.76	-34.29
832.93	-60.79
833.1	75.21
833.27	16.93
833.44	-6.03
833.61	-87.28
833.78	18.69
833.95	2.8
834.12	92.87
834.29	-69.62
834.459	13.39
834.629	-11.33
834.799	-13.1
834.969	15.16
835.139	1.03
835.308	-36.06
835.478	4.56
835.648	25.76
835.817	1.03
835.987	-59.02
836.157	16.93
836.326	-53.72
836.496	55.78
836.665	15.16
836.835	2.8
837.005	-66.09
837.174	11.63
837.344	-29
837.513	8.1
837.683	-80.22
837.852	16.93
838.021	-46.66
838.191	38.12
838.36	-2.5
838.53	-29
838.699	-41.36
838.868	-9.57
839.038	22.22
839.207	-32.53
839.376	-39.59
839.546	-48.42
839.715	-92.58
839.884	15.16
840.053	-16.63
840.222	25.76
840.392	25.76
840.561	-0.74
840.73	-16.63
840.899	-25.46
841.068	-39.59
841.237	-46.66
841.406	-36.06
841.575	23.99
841.744	-23.7
841.913	-34.29
842.082	-6.03
842.251	31.06
842.42	-87.28
842.589	-36.06
842.758	-34.29
842.927	-30.76
843.096	-27.23
843.264	-43.12
843.433	-74.92
843.602	-73.15
843.771	-46.66
843.94	61.08
844.108	-4.27
844.277	39.89
844.446	62.85
844.614	-41.36
844.783	-117.31
844.952	-27.23
845.12	-25.46
845.289	13.39
845.458	29.29
845.626	-34.29
845.795	25.76
845.963	-27.23
846.132	2.8
846.3	-34.29
846.469	-44.89
846.637	-29
846.806	-27.23
846.974	-6.03
847.142	50.48
847.311	-18.4
847.479	38.12
847.648	-20.16
847.816	-48.42
847.984	-27.23
848.152	18.69
848.321	-9.57
848.489	-6.03
848.657	-27.23
848.825	-51.96
848.994	2.8
849.162	41.65
849.33	-16.63
849.498	-23.7
849.666	13.39
849.834	-16.63
850.002	16.93
850.17	-11.33
850.338	-74.92
850.506	-50.19
850.674	-25.46
850.842	-6.03
851.01	-16.63
851.178	-30.76
851.346	-29
851.514	-9.57
851.682	32.82
851.85	16.93
852.018	-60.79
852.186	41.65
852.353	-18.4
852.521	76.98
852.689	-108.47
852.857	-20.16
853.024	-71.38
853.192	-48.42
853.36	-36.06
853.527	-106.71
853.695	-62.55
853.863	-25.46
854.03	-83.75
854.198	59.32
854.366	13.39
854.533	-80.22
854.701	-87.28
854.868	-6.03
855.036	-62.55
855.203	-57.25
855.371	-0.74
855.538	2.8
855.705	1.03
855.873	-23.7
856.04	-7.8
856.208	-4.27
856.375	-30.76
856.542	-108.47
856.71	-14.87
856.877	-39.59
857.044	15.16
857.211	-21.93
857.379	-57.25
857.546	-4.27
857.713	-27.23
857.88	-51.96
858.047	2.8
858.214	-4.27
858.381	-62.55
858.549	-41.36
858.716	-32.53
858.883	4.56
859.05	-48.42
859.217	-16.63
859.384	-6.03
859.551	46.95
859.718	-18.4
859.885	-80.22
860.052	-43.12
860.218	-73.15
860.385	-46.66
860.552	-13.1
860.719	-39.59
860.886	20.46
861.053	-25.46
861.219	61.08
861.386	-13.1
861.553	-80.22
861.72	-78.45
861.886	-80.22
862.053	-74.92
862.22	-30.76
862.386	34.59
862.553	-39.59
862.72	13.39
862.886	-55.49
863.053	-4.27
863.219	9.86
863.386	-62.55
863.552	-32.53
863.719	-23.7
863.885	-90.81
864.052	57.55
864.218	-55.49
864.385	15.16
864.551	9.86
864.717	82.28
864.884	-62.55
865.05	-41.36
865.216	-41.36
865.383	-44.89
865.549	16.93
865.715	-90.81
865.881	18.69
866.048	-66.09
866.214	-43.12
866.38	25.76
866.546	1.03
866.712	-43.12
866.878	-32.53
867.045	20.46
867.211	-43.12
867.377	-13.1
867.543	-92.58
867.709	-66.09
867.875	-53.72
868.041	6.33
868.207	-73.15
868.373	9.86
868.539	-36.06
868.705	-2.5
868.87	-39.59
869.036	23.99
869.202	46.95
869.368	6.33
869.534	-7.8
869.7	-48.42
869.865	-34.29
870.031	-64.32
870.197	-11.33
870.363	34.59
870.528	-55.49
870.694	-34.29
870.86	-36.06
871.025	39.89
871.191	-85.51
871.356	4.56
871.522	-23.7
871.688	27.52
871.853	27.52
872.019	6.33
872.184	34.59
872.35	-7.8
872.515	-36.06
872.68	-46.66
872.846	-71.38
873.011	-39.59
873.177	-81.98
873.342	45.19
873.507	-13.1
873.673	6.33
873.838	-37.83
874.003	15.16
874.169	29.29
874.334	4.56
874.499	-21.93
874.664	38.12
874.829	15.16
874.995	-30.76
875.16	-64.32
875.325	-14.87
875.49	-23.7
875.655	-2.5
875.82	34.59
875.985	-50.19
876.15	-7.8
876.315	59.32
876.48	-71.38
876.645	-81.98
876.81	-92.58
876.975	80.51
877.14	25.76
877.305	80.51
877.47	-76.68
877.635	-134.97
877.799	-83.75
877.964	-50.19
878.129	8.1
878.294	-94.34
878.459	-18.4
878.623	-2.5
878.788	-4.27
878.953	-41.36
879.117	62.85
879.282	61.08
879.447	20.46
879.611	11.63
879.776	-16.63
879.941	-74.92
880.105	-29
880.27	-18.4
880.434	-32.53
880.599	-18.4
880.763	-119.07
880.928	-32.53
881.092	-66.09
881.257	-59.02
881.421	32.82
881.585	-13.1
881.75	-55.49
881.914	-32.53
882.078	66.38
882.243	16.93
882.407	-41.36
882.571	-23.7
882.735	39.89
882.9	-6.03
883.064	-55.49
883.228	4.56
883.392	13.39
883.556	-25.46
883.721	-23.7
883.885	1.03
884.049	-14.87
884.213	-11.33
884.377	-51.96
884.541	-64.32
884.705	-20.16
884.869	-18.4
885.033	-6.03
885.197	-4.27
885.361	52.25
885.525	29.29
885.689	-23.7
885.852	-30.76
886.016	-73.15
886.18	-55.49
886.344	-62.55
886.508	6.33
886.672	-81.98
886.835	-50.19
886.999	8.1
887.163	-30.76
887.326	91.11
887.49	-41.36
887.654	-18.4
887.817	36.35
887.981	-18.4
888.145	-64.32
888.308	25.76
888.472	64.61
888.635	-20.16
888.799	54.02
888.962	13.39
889.126	6.33
889.289	-48.42
889.453	57.55
889.616	23.99
889.78	2.8
889.943	9.86
890.106	11.63
890.27	-51.96
890.433	-20.16
890.596	15.16
890.76	50.48
890.923	-14.87
891.086	-29
891.249	-34.29
891.413	15.16
891.576	-23.7
891.739	45.19
891.902	-46.66
892.065	46.95
892.228	-13.1
892.391	-50.19
892.554	-13.1
892.717	43.42
892.88	9.86
893.044	-41.36
893.206	-39.59
893.369	25.76
893.532	-2.5
893.695	-55.49
893.858	-48.42
894.021	25.76
894.184	9.86
894.347	-46.66
894.51	-41.36
894.673	-48.42
894.835	-14.87
894.998	-76.68
895.161	-44.89
895.324	-30.76
895.486	-9.57
895.649	-50.19
895.812	-23.7
895.974	16.93
896.137	-152.63
896.3	-106.71
896.462	-74.92
896.625	-43.12
896.787	4.56
896.95	-41.36
897.112	16.93
897.275	-143.8
897.437	-46.66
897.6	-14.87
897.762	-73.15
897.925	11.63
898.087	23.99
898.249	-37.83
898.412	-67.85
898.574	-64.32
898.736	31.06
898.899	32.82
899.061	-53.72
899.223	-44.89
899.385	-57.25
899.548	-13.1
899.71	-89.05
899.872	-30.76
900.034	-21.93
900.196	-18.4
900.358	32.82
900.521	-9.57
900.683	45.19
900.845	6.33
901.007	-66.09
901.169	-18.4
901.331	-18.4
901.493	-18.4
