Data from FLMT043001_09-37-14-457.txt Node
Date: Wed Sep 13 09:37:14 AWST 2023
User: vk1team
Spectrometer: FLMT04300
Trigger mode: 0
Integration Time (sec): 1.000000E-1
Scans to average: 1
Electric dark correction enabled: true
Nonlinearity correction enabled: false
Boxcar width: 0
XAxis mode: Wavelengths
Number of Pixels in Spectrum: 3648
>>>>>Begin Spectral Data<<<<<
195.236	-117.75
195.457	-117.75
195.678	-117.75
195.899	-168.97
196.119	-18.84
196.34	18.25
196.561	-18.84
196.782	-38.27
197.002	-15.31
197.223	28.85
197.444	103.03
197.664	-31.2
197.885	-66.53
198.106	9.42
198.326	12.95
198.547	-10.01
198.768	7.65
198.988	32.38
199.209	7.65
199.429	73
199.65	-38.27
199.871	55.34
200.091	-34.74
200.312	76.54
200.532	21.78
200.753	14.72
200.973	55.34
201.194	65.94
201.414	5.89
201.635	51.81
201.855	27.08
202.076	-71.83
202.296	18.25
202.516	55.34
202.737	14.72
202.957	-4.71
203.178	118.92
203.398	-2.94
203.618	20.02
203.839	-64.76
204.059	-70.06
204.279	12.95
204.5	18.25
204.72	44.74
204.94	-8.24
205.16	41.21
205.381	-11.77
205.601	-24.14
205.821	67.7
206.041	48.28
206.262	23.55
206.482	50.04
206.702	35.91
206.922	-59.46
207.142	23.55
207.362	60.64
207.583	-11.77
207.803	9.42
208.023	11.19
208.243	71.24
208.463	14.72
208.683	32.38
208.903	35.91
209.123	67.7
209.343	-43.57
209.563	20.02
209.783	46.51
210.003	-1.18
210.223	-73.59
210.443	20.02
210.663	-85.96
210.883	85.37
211.103	-4.71
211.323	-20.61
211.543	9.42
211.763	37.68
211.983	90.67
212.202	71.24
212.422	23.55
212.642	4.12
212.862	-10.01
213.082	76.54
213.302	41.21
213.521	25.32
213.741	-38.27
213.961	120.69
214.181	34.15
214.4	16.48
214.62	67.7
214.84	32.38
215.06	76.54
215.279	48.28
215.499	32.38
215.719	28.85
215.938	-6.48
216.158	-25.9
216.377	62.41
216.597	46.51
216.817	2.35
217.036	41.21
217.256	103.03
217.475	48.28
217.695	64.17
217.914	14.72
218.134	-22.37
218.354	32.38
218.573	34.15
218.793	37.68
219.012	97.73
219.231	87.13
219.451	-34.74
219.67	-1.18
219.89	21.78
220.109	111.86
220.329	39.45
220.548	65.94
220.767	-4.71
220.987	-4.71
221.206	30.61
221.425	50.04
221.645	25.32
221.864	88.9
222.083	39.45
222.303	35.91
222.522	108.33
222.741	50.04
222.96	81.83
223.18	-27.67
223.399	30.61
223.618	92.43
223.837	34.15
224.056	85.37
224.276	76.54
224.495	74.77
224.714	55.34
224.933	-4.71
225.152	69.47
225.371	-22.37
225.59	28.85
225.809	94.2
226.028	-10.01
226.248	5.89
226.467	9.42
226.686	58.87
226.905	35.91
227.124	57.11
227.343	2.35
227.562	35.91
227.781	-20.61
228	-15.31
228.218	-1.18
228.437	35.91
228.656	51.81
228.875	5.89
229.094	-54.16
229.313	-50.63
229.532	-25.9
229.751	21.78
229.97	-15.31
230.188	4.12
230.407	-50.63
230.626	64.17
230.845	-8.24
231.064	9.42
231.282	-31.2
231.501	-11.77
231.72	-11.77
231.939	41.21
232.157	81.83
232.376	11.19
232.595	18.25
232.813	-13.54
233.032	-4.71
233.251	25.32
233.469	-6.48
233.688	53.57
233.907	-36.5
234.125	71.24
234.344	35.91
234.562	62.41
234.781	88.9
234.999	44.74
235.218	-54.16
235.436	44.74
235.655	83.6
235.873	71.24
236.092	0.59
236.31	106.56
236.529	-2.94
236.747	-36.5
236.966	-32.97
237.184	30.61
237.403	20.02
237.621	92.43
237.839	-40.03
238.058	32.38
238.276	46.51
238.494	-4.71
238.713	12.95
238.931	-2.94
239.149	57.11
239.368	-17.07
239.586	64.17
239.804	111.86
240.022	-62.99
240.241	73
240.459	-6.48
240.677	5.89
240.895	5.89
241.113	2.35
241.332	42.98
241.55	58.87
241.768	-71.83
241.986	-40.03
242.204	25.32
242.422	-8.24
242.64	53.57
242.859	-1.18
243.077	-41.8
243.295	-10.01
243.513	20.02
243.731	32.38
243.949	-1.18
244.167	-15.31
244.385	-41.8
244.603	-25.9
244.821	50.04
245.039	-22.37
245.257	136.59
245.475	-32.97
245.692	0.59
245.91	90.67
246.128	65.94
246.346	50.04
246.564	99.5
246.782	-22.37
247	37.68
247.218	25.32
247.435	44.74
247.653	-57.7
247.871	94.2
248.089	39.45
248.306	-31.2
248.524	-6.48
248.742	55.34
248.96	4.12
249.177	-41.8
249.395	78.3
249.613	-25.9
249.83	-4.71
250.048	-17.07
250.266	55.34
250.483	37.68
250.701	28.85
250.919	4.12
251.136	4.12
251.354	2.35
251.571	35.91
251.789	-71.83
252.006	57.11
252.224	64.17
252.441	14.72
252.659	-11.77
252.876	30.61
253.094	55.34
253.311	62.41
253.529	20.02
253.746	32.38
253.964	-45.33
254.181	9.42
254.399	65.94
254.616	41.21
254.833	42.98
255.051	71.24
255.268	-24.14
255.485	21.78
255.703	27.08
255.92	51.81
256.137	-8.24
256.355	35.91
256.572	-36.5
256.789	-36.5
257.006	32.38
257.224	58.87
257.441	27.08
257.658	-43.57
257.875	-18.84
258.092	-41.8
258.31	106.56
258.527	154.25
258.744	-8.24
258.961	21.78
259.178	87.13
259.395	48.28
259.612	-50.63
259.829	104.79
260.046	41.21
260.263	18.25
260.48	51.81
260.698	16.48
260.915	58.87
261.132	-11.77
261.349	-6.48
261.565	53.57
261.782	-6.48
261.999	-55.93
262.216	-2.94
262.433	34.15
262.65	-52.4
262.867	2.35
263.084	2.35
263.301	-20.61
263.518	73
263.734	-59.46
263.951	-34.74
264.168	32.38
264.385	23.55
264.602	85.37
264.818	60.64
265.035	-1.18
265.252	-48.86
265.469	-27.67
265.685	30.61
265.902	11.19
266.119	-15.31
266.336	16.48
266.552	-78.89
266.769	138.35
266.986	25.32
267.202	30.61
267.419	7.65
267.635	51.81
267.852	-13.54
268.069	0.59
268.285	60.64
268.502	9.42
268.718	11.19
268.935	37.68
269.151	23.55
269.368	-31.2
269.584	81.83
269.801	35.91
270.017	-2.94
270.234	14.72
270.45	-13.54
270.666	7.65
270.883	-11.77
271.099	81.83
271.316	41.21
271.532	62.41
271.748	-32.97
271.965	99.5
272.181	-20.61
272.397	-11.77
272.614	20.02
272.83	11.19
273.046	9.42
273.263	-8.24
273.479	35.91
273.695	-18.84
273.911	4.12
274.127	-45.33
274.344	101.26
274.56	5.89
274.776	95.96
274.992	50.04
275.208	39.45
275.424	156.01
275.641	62.41
275.857	-27.67
276.073	37.68
276.289	28.85
276.505	-11.77
276.721	73
276.937	115.39
277.153	18.25
277.369	51.81
277.585	92.43
277.801	124.22
278.017	-2.94
278.233	57.11
278.449	32.38
278.665	62.41
278.881	71.24
279.097	46.51
279.313	62.41
279.528	60.64
279.744	5.89
279.96	55.34
280.176	177.21
280.392	214.3
280.608	170.14
280.823	175.44
281.039	136.59
281.255	104.79
281.471	230.2
281.687	104.79
281.902	178.98
282.118	145.42
282.334	302.61
282.549	216.07
282.765	263.75
282.981	159.55
283.196	131.29
283.412	140.12
283.628	194.87
283.843	258.45
284.059	180.74
284.274	240.79
284.49	111.86
284.706	230.2
284.921	106.56
285.137	219.6
285.352	200.17
285.568	164.85
285.783	152.48
285.999	214.3
286.214	175.44
286.43	141.89
286.645	134.82
286.861	187.81
287.076	216.07
287.291	284.95
287.507	306.14
287.722	210.77
287.938	159.55
288.153	198.4
288.368	286.71
288.584	237.26
288.799	281.42
289.014	233.73
289.229	267.29
289.445	279.65
289.66	145.42
289.875	207.23
290.09	228.43
290.306	267.29
290.521	283.18
290.736	230.2
290.951	219.6
291.166	170.14
291.382	337.93
291.597	154.25
291.812	148.95
292.027	118.92
292.242	122.46
292.457	175.44
292.672	228.43
292.887	182.51
293.102	231.96
293.317	152.48
293.532	207.23
293.747	233.73
293.962	246.09
294.177	111.86
294.392	226.66
294.607	212.53
294.822	157.78
295.037	168.38
295.252	267.29
295.467	122.46
295.682	249.62
295.897	110.09
296.112	140.12
296.326	284.95
296.541	166.61
296.756	230.2
296.971	134.82
297.186	207.23
297.4	247.86
297.615	198.4
297.83	258.45
298.045	242.56
298.259	283.18
298.474	235.49
298.689	302.61
298.903	226.66
299.118	265.52
299.333	186.04
299.547	276.12
299.762	200.17
299.977	171.91
300.191	300.84
300.406	261.99
300.62	239.03
300.835	297.31
301.05	272.58
301.264	152.48
301.479	281.42
301.693	337.93
301.908	221.36
302.122	290.25
302.337	322.04
302.551	270.82
302.766	373.26
302.98	293.78
303.194	376.79
303.409	339.7
303.623	314.97
303.838	397.98
304.052	346.76
304.266	456.27
304.481	503.96
304.695	541.05
304.909	629.36
305.124	966.7
305.338	2275.46
305.552	3914.5
305.766	5299.2
305.981	6194.67
306.195	6198.2
306.409	5269.18
306.623	4636.87
306.837	4728.72
307.052	6229.99
307.266	7231.43
307.48	8035.05
307.694	8029.75
307.908	9011.76
308.122	10981.08
308.336	11442.06
308.55	10445.92
308.764	9315.55
308.979	8587.87
309.193	8121.59
309.407	7263.22
309.621	6585
309.835	6443.7
310.049	5822
310.263	5557.07
310.477	5343.36
310.69	4870.01
310.904	4718.12
311.118	4643.94
311.332	4967.15
311.546	4970.69
311.76	4765.81
311.974	4622.74
312.188	4306.59
312.402	4004.57
312.615	4059.33
312.829	4059.33
313.043	3981.61
313.257	3932.16
313.471	3888
313.684	4066.39
313.898	4094.65
314.112	4190.02
314.325	4027.53
314.539	3716.68
314.753	3494.14
314.967	3603.64
315.18	3192.12
315.394	2860.07
315.607	2944.85
315.821	2815.92
316.035	2648.13
316.248	2485.64
316.462	2404.39
316.675	2386.73
316.889	2165.95
317.103	1976.97
317.316	1994.63
317.53	2088.24
317.743	1800.35
317.957	1756.2
318.17	1789.75
318.384	1862.17
318.597	1763.26
318.81	1588.41
319.024	1477.14
319.237	1689.08
319.451	1618.43
319.664	1445.34
319.877	1365.86
320.091	1567.21
320.304	1627.26
320.517	1567.21
320.731	1247.53
320.944	1141.56
321.157	1309.35
321.371	1325.24
321.584	1150.39
321.797	1017.92
322.01	1067.38
322.223	1113.3
322.437	1063.84
322.65	998.49
322.863	836
323.076	846.6
323.289	894.29
323.502	841.3
323.716	834.24
323.929	650.55
324.142	673.51
324.355	615.23
324.568	719.43
324.781	744.16
324.994	595.8
325.207	523.39
325.42	606.4
325.633	532.22
325.846	551.64
326.059	442.14
326.272	542.81
326.485	450.97
326.698	565.77
326.911	443.91
327.124	431.54
327.336	415.65
327.549	447.44
327.762	373.26
327.975	454.5
328.188	521.62
328.401	341.47
328.613	339.7
328.826	366.19
329.039	364.43
329.252	397.98
329.465	392.69
329.677	345
329.89	348.53
330.103	297.31
330.315	378.56
330.528	449.2
330.741	359.13
330.953	353.83
331.166	327.34
331.379	375.02
331.591	329.1
331.804	348.53
332.017	376.79
332.229	261.99
332.442	341.47
332.654	311.44
332.867	226.66
333.079	311.44
333.292	330.87
333.504	350.3
333.717	419.18
333.929	288.48
334.142	422.71
334.354	323.8
334.566	329.1
334.779	318.51
334.991	366.19
335.204	299.08
335.416	284.95
335.628	276.12
335.841	362.66
336.053	256.69
336.265	339.7
336.478	329.1
336.69	380.32
336.902	219.6
337.114	265.52
337.327	260.22
337.539	336.17
337.751	203.7
337.963	200.17
338.176	269.05
338.388	352.06
338.6	350.3
338.812	253.16
339.024	339.7
339.236	260.22
339.448	242.56
339.66	322.04
339.873	292.01
340.085	316.74
340.297	299.08
340.509	300.84
340.721	322.04
340.933	399.75
341.145	284.95
341.357	367.96
341.569	336.17
341.781	399.75
341.993	406.82
342.204	410.35
342.416	380.32
342.628	403.28
342.84	360.89
343.052	378.56
343.264	383.86
343.476	383.86
343.688	348.53
343.899	345
344.111	332.64
344.323	403.28
344.535	318.51
344.746	417.41
344.958	447.44
345.17	454.5
345.382	401.52
345.593	419.18
345.805	426.24
346.017	382.09
346.228	456.27
346.44	461.57
346.652	452.74
346.863	459.8
347.075	366.19
347.286	431.54
347.498	350.3
347.71	337.93
347.921	507.49
348.133	366.19
348.344	390.92
348.556	346.76
348.767	330.87
348.979	394.45
349.19	390.92
349.402	300.84
349.613	366.19
349.825	394.45
350.036	284.95
350.247	336.17
350.459	314.97
350.67	327.34
350.881	242.56
351.093	314.97
351.304	300.84
351.515	382.09
351.727	353.83
351.938	322.04
352.149	304.38
352.361	442.14
352.572	383.86
352.783	359.13
352.994	382.09
353.205	313.21
353.417	505.72
353.628	339.7
353.839	302.61
354.05	352.06
354.261	364.43
354.472	410.35
354.683	341.47
354.895	387.39
355.106	394.45
355.317	428.01
355.528	306.14
355.739	406.82
355.95	299.08
356.161	436.84
356.372	367.96
356.583	364.43
356.794	385.62
357.005	367.96
357.216	284.95
357.427	334.4
357.638	367.96
357.848	314.97
358.059	281.42
358.27	350.3
358.481	424.48
358.692	239.03
358.903	367.96
359.114	376.79
359.324	332.64
359.535	224.9
359.746	341.47
359.957	334.4
360.167	332.64
360.378	359.13
360.589	306.14
360.8	311.44
361.01	304.38
361.221	256.69
361.432	281.42
361.642	350.3
361.853	313.21
362.063	390.92
362.274	336.17
362.485	306.14
362.695	276.12
362.906	375.02
363.116	304.38
363.327	413.88
363.537	261.99
363.748	352.06
363.958	390.92
364.169	327.34
364.379	300.84
364.59	380.32
364.8	412.11
365.011	304.38
365.221	307.91
365.431	322.04
365.642	468.63
365.852	343.23
366.063	235.49
366.273	311.44
366.483	406.82
366.694	396.22
366.904	251.39
367.114	336.17
367.324	436.84
367.535	339.7
367.745	309.67
367.955	346.76
368.165	322.04
368.375	348.53
368.586	306.14
368.796	253.16
369.006	323.8
369.216	367.96
369.426	293.78
369.636	325.57
369.846	330.87
370.057	412.11
370.267	337.93
370.477	279.65
370.687	299.08
370.897	253.16
371.107	343.23
371.317	401.52
371.527	226.66
371.737	357.36
371.947	313.21
372.157	382.09
372.367	246.09
372.576	390.92
372.786	269.05
372.996	375.02
373.206	253.16
373.416	366.19
373.626	424.48
373.836	359.13
374.045	246.09
374.255	355.6
374.465	327.34
374.675	348.53
374.885	235.49
375.094	330.87
375.304	322.04
375.514	251.39
375.724	350.3
375.933	290.25
376.143	376.79
376.353	307.91
376.562	304.38
376.772	237.26
376.981	224.9
377.191	223.13
377.401	279.65
377.61	348.53
377.82	240.79
378.029	228.43
378.239	314.97
378.448	258.45
378.658	371.49
378.867	288.48
379.077	240.79
379.286	367.96
379.496	307.91
379.705	332.64
379.915	313.21
380.124	320.27
380.333	260.22
380.543	290.25
380.752	306.14
380.962	343.23
381.171	329.1
381.38	341.47
381.589	281.42
381.799	226.66
382.008	201.94
382.217	247.86
382.427	247.86
382.636	369.73
382.845	292.01
383.054	367.96
383.263	390.92
383.473	274.35
383.682	261.99
383.891	360.89
384.1	217.83
384.309	300.84
384.518	231.96
384.727	327.34
384.936	334.4
385.146	295.54
385.355	350.3
385.564	295.54
385.773	311.44
385.982	279.65
386.191	288.48
386.4	339.7
386.609	249.62
386.818	277.88
387.027	258.45
387.235	299.08
387.444	295.54
387.653	279.65
387.862	364.43
388.071	318.51
388.28	286.71
388.489	260.22
388.698	286.71
388.906	353.83
389.115	369.73
389.324	212.53
389.533	355.6
389.741	272.58
389.95	306.14
390.159	219.6
390.368	320.27
390.576	322.04
390.785	223.13
390.994	279.65
391.202	292.01
391.411	247.86
391.62	219.6
391.828	279.65
392.037	233.73
392.245	251.39
392.454	270.82
392.662	277.88
392.871	258.45
393.08	203.7
393.288	205.47
393.497	318.51
393.705	311.44
393.913	184.27
394.122	337.93
394.33	263.75
394.539	231.96
394.747	274.35
394.956	284.95
395.164	320.27
395.372	290.25
395.581	327.34
395.789	447.44
395.997	685.88
396.206	516.32
396.414	376.79
396.622	371.49
396.831	346.76
397.039	320.27
397.247	309.67
397.455	265.52
397.663	353.83
397.872	260.22
398.08	389.15
398.288	313.21
398.496	237.26
398.704	292.01
398.912	274.35
399.121	327.34
399.329	322.04
399.537	223.13
399.745	353.83
399.953	235.49
400.161	237.26
400.369	216.07
400.577	265.52
400.785	217.83
400.993	272.58
401.201	276.12
401.409	230.2
401.617	180.74
401.825	203.7
402.033	304.38
402.24	203.7
402.448	272.58
402.656	254.92
402.864	274.35
403.072	288.48
403.28	231.96
403.487	318.51
403.695	397.98
403.903	214.3
404.111	210.77
404.319	295.54
404.526	256.69
404.734	194.87
404.942	219.6
405.149	228.43
405.357	288.48
405.565	286.71
405.772	247.86
405.98	302.61
406.188	293.78
406.395	292.01
406.603	205.47
406.81	224.9
407.018	288.48
407.226	336.17
407.433	244.32
407.641	274.35
407.848	228.43
408.056	270.82
408.263	297.31
408.471	332.64
408.678	390.92
408.885	707.07
409.093	1268.72
409.3	1348.2
409.508	878.39
409.715	767.12
409.922	585.2
410.13	495.13
410.337	394.45
410.544	307.91
410.752	293.78
410.959	302.61
411.166	256.69
411.373	239.03
411.581	184.27
411.788	254.92
411.995	217.83
412.202	173.68
412.41	256.69
412.617	157.78
412.824	221.36
413.031	175.44
413.238	230.2
413.445	152.48
413.652	212.53
413.859	205.47
414.067	118.92
414.274	138.35
414.481	223.13
414.688	302.61
414.895	203.7
415.102	253.16
415.309	233.73
415.516	300.84
415.723	256.69
415.929	274.35
416.136	193.1
416.343	154.25
416.55	286.71
416.757	254.92
416.964	203.7
417.171	283.18
417.378	270.82
417.584	240.79
417.791	221.36
417.998	263.75
418.205	292.01
418.412	219.6
418.618	133.05
418.825	233.73
419.032	113.63
419.239	293.78
419.445	281.42
419.652	246.09
419.859	221.36
420.065	196.64
420.272	198.4
420.478	193.1
420.685	256.69
420.892	233.73
421.098	253.16
421.305	330.87
421.511	152.48
421.718	163.08
421.924	147.18
422.131	136.59
422.337	189.57
422.544	194.87
422.75	175.44
422.957	217.83
423.163	141.89
423.37	239.03
423.576	138.35
423.782	175.44
423.989	284.95
424.195	143.65
424.401	228.43
424.608	95.96
424.814	200.17
425.02	145.42
425.227	198.4
425.433	230.2
425.639	141.89
425.845	240.79
426.052	156.01
426.258	228.43
426.464	194.87
426.67	178.98
426.876	171.91
427.083	161.31
427.289	219.6
427.495	180.74
427.701	219.6
427.907	272.58
428.113	210.77
428.319	150.72
428.525	184.27
428.731	242.56
428.937	120.69
429.143	214.3
429.349	258.45
429.555	263.75
429.761	85.37
429.967	221.36
430.173	247.86
430.379	223.13
430.585	113.63
430.791	118.92
430.997	191.34
431.203	253.16
431.408	194.87
431.614	217.83
431.82	295.54
432.026	299.08
432.232	299.08
432.437	601.1
432.643	1192.78
432.849	4039.9
433.055	6563.8
433.26	5186.16
433.466	3347.55
433.672	2379.67
433.877	1761.49
434.083	1404.72
434.289	1009.09
434.494	857.2
434.7	641.72
434.906	551.64
435.111	373.26
435.317	306.14
435.522	360.89
435.728	348.53
435.933	408.58
436.139	249.62
436.344	258.45
436.55	228.43
436.755	276.12
436.961	306.14
437.166	226.66
437.372	141.89
437.577	237.26
437.782	129.52
437.988	251.39
438.193	249.62
438.398	140.12
438.604	209
438.809	201.94
439.014	145.42
439.22	209
439.425	94.2
439.63	219.6
439.835	134.82
440.041	180.74
440.246	219.6
440.451	148.95
440.656	224.9
440.861	306.14
441.067	311.44
441.272	231.96
441.477	249.62
441.682	239.03
441.887	201.94
442.092	122.46
442.297	168.38
442.502	261.99
442.707	249.62
442.912	163.08
443.117	138.35
443.322	214.3
443.527	168.38
443.732	244.32
443.937	186.04
444.142	233.73
444.347	226.66
444.552	193.1
444.757	187.81
444.962	300.84
445.166	182.51
445.371	203.7
445.576	152.48
445.781	166.61
445.986	244.32
446.191	221.36
446.395	175.44
446.6	145.42
446.805	223.13
447.01	184.27
447.214	145.42
447.419	164.85
447.624	261.99
447.828	103.03
448.033	207.23
448.238	237.26
448.442	223.13
448.647	200.17
448.851	106.56
449.056	145.42
449.261	226.66
449.465	170.14
449.67	226.66
449.874	203.7
450.079	286.71
450.283	196.64
450.488	224.9
450.692	129.52
450.896	189.57
451.101	166.61
451.305	171.91
451.51	157.78
451.714	237.26
451.918	200.17
452.123	209
452.327	166.61
452.531	209
452.736	177.21
452.94	166.61
453.144	201.94
453.349	148.95
453.553	173.68
453.757	133.05
453.961	131.29
454.166	198.4
454.37	193.1
454.574	198.4
454.778	157.78
454.982	194.87
455.186	136.59
455.39	138.35
455.595	189.57
455.799	209
456.003	261.99
456.207	251.39
456.411	244.32
456.615	143.65
456.819	279.65
457.023	355.6
457.227	290.25
457.431	223.13
457.635	110.09
457.839	180.74
458.043	251.39
458.246	118.92
458.45	184.27
458.654	106.56
458.858	156.01
459.062	205.47
459.266	140.12
459.47	200.17
459.673	104.79
459.877	207.23
460.081	175.44
460.285	235.49
460.488	254.92
460.692	196.64
460.896	138.35
461.1	175.44
461.303	187.81
461.507	178.98
461.711	154.25
461.914	223.13
462.118	320.27
462.321	297.31
462.525	364.43
462.729	231.96
462.932	191.34
463.136	184.27
463.339	249.62
463.543	124.22
463.746	207.23
463.95	203.7
464.153	157.78
464.357	226.66
464.56	219.6
464.764	205.47
464.967	154.25
465.17	173.68
465.374	171.91
465.577	171.91
465.78	125.99
465.984	207.23
466.187	180.74
466.39	110.09
466.594	159.55
466.797	23.55
467	173.68
467.203	205.47
467.407	216.07
467.61	212.53
467.813	163.08
468.016	120.69
468.219	147.18
468.423	184.27
468.626	157.78
468.829	154.25
469.032	157.78
469.235	55.34
469.438	178.98
469.641	163.08
469.844	97.73
470.047	198.4
470.25	217.83
470.453	159.55
470.656	94.2
470.859	154.25
471.062	242.56
471.265	178.98
471.468	258.45
471.671	212.53
471.874	108.33
472.077	191.34
472.28	152.48
472.483	156.01
472.685	136.59
472.888	216.07
473.091	239.03
473.294	173.68
473.497	175.44
473.699	50.04
473.902	113.63
474.105	140.12
474.308	138.35
474.51	76.54
474.713	150.72
474.916	196.64
475.118	118.92
475.321	223.13
475.524	143.65
475.726	166.61
475.929	154.25
476.131	189.57
476.334	173.68
476.536	177.21
476.739	198.4
476.942	210.77
477.144	168.38
477.347	265.52
477.549	157.78
477.751	313.21
477.954	217.83
478.156	299.08
478.359	198.4
478.561	166.61
478.764	205.47
478.966	270.82
479.168	240.79
479.371	239.03
479.573	145.42
479.775	327.34
479.978	219.6
480.18	217.83
480.382	161.31
480.584	113.63
480.787	237.26
480.989	235.49
481.191	178.98
481.393	203.7
481.595	249.62
481.797	311.44
482	297.31
482.202	396.22
482.404	380.32
482.606	300.84
482.808	429.78
483.01	373.26
483.212	493.36
483.414	443.91
483.616	473.93
483.818	708.84
484.02	708.84
484.222	1122.13
484.424	1641.39
484.626	3856.21
484.828	18637.57
485.03	53647.27
485.232	57704.24
485.434	39457.59
485.636	28752.62
485.837	21511.19
486.039	16408.62
486.241	13294.81
486.443	9617.57
486.645	6781.05
486.847	5343.36
487.048	4246.54
487.25	3110.87
487.452	2215.41
487.653	1327.01
487.855	1007.33
488.057	765.36
488.259	516.32
488.46	509.26
488.662	539.28
488.863	399.75
489.065	346.76
489.267	284.95
489.468	292.01
489.67	336.17
489.871	201.94
490.073	189.57
490.274	329.1
490.476	184.27
490.677	293.78
490.879	240.79
491.08	267.29
491.282	311.44
491.483	288.48
491.685	233.73
491.886	405.05
492.087	412.11
492.289	292.01
492.49	383.86
492.691	369.73
492.893	304.38
493.094	265.52
493.295	304.38
493.497	329.1
493.698	265.52
493.899	306.14
494.1	247.86
494.302	256.69
494.503	261.99
494.704	265.52
494.905	205.47
495.106	309.67
495.307	212.53
495.509	277.88
495.71	219.6
495.911	263.75
496.112	186.04
496.313	210.77
496.514	247.86
496.715	231.96
496.916	194.87
497.117	336.17
497.318	118.92
497.519	171.91
497.72	154.25
497.921	156.01
498.122	201.94
498.323	217.83
498.524	212.53
498.724	200.17
498.925	239.03
499.126	177.21
499.327	118.92
499.528	193.1
499.729	163.08
499.929	302.61
500.13	235.49
500.331	274.35
500.532	258.45
500.732	299.08
500.933	175.44
501.134	212.53
501.334	147.18
501.535	212.53
501.736	180.74
501.936	306.14
502.137	196.64
502.338	178.98
502.538	235.49
502.739	258.45
502.939	223.13
503.14	136.59
503.34	180.74
503.541	194.87
503.741	170.14
503.942	156.01
504.142	152.48
504.343	159.55
504.543	124.22
504.744	171.91
504.944	97.73
505.144	201.94
505.345	180.74
505.545	170.14
505.745	163.08
505.946	228.43
506.146	113.63
506.346	163.08
506.547	186.04
506.747	178.98
506.947	201.94
507.147	224.9
507.347	171.91
507.548	209
507.748	145.42
507.948	145.42
508.148	34.15
508.348	212.53
508.548	216.07
508.749	191.34
508.949	170.14
509.149	200.17
509.349	147.18
509.549	124.22
509.749	178.98
509.949	186.04
510.149	212.53
510.349	157.78
510.549	159.55
510.749	230.2
510.949	81.83
511.149	253.16
511.349	57.11
511.548	170.14
511.748	110.09
511.948	117.16
512.148	133.05
512.348	80.07
512.548	302.61
512.747	113.63
512.947	180.74
513.147	150.72
513.347	124.22
513.546	221.36
513.746	235.49
513.946	212.53
514.146	159.55
514.345	156.01
514.545	219.6
514.745	138.35
514.944	143.65
515.144	85.37
515.343	115.39
515.543	97.73
515.743	127.76
515.942	35.91
516.142	133.05
516.341	148.95
516.541	129.52
516.74	136.59
516.94	267.29
517.139	136.59
517.338	186.04
517.538	85.37
517.737	134.82
517.937	214.3
518.136	173.68
518.335	170.14
518.535	186.04
518.734	203.7
518.933	159.55
519.133	159.55
519.332	168.38
519.531	145.42
519.731	136.59
519.93	134.82
520.129	159.55
520.328	168.38
520.527	173.68
520.727	152.48
520.926	111.86
521.125	42.98
521.324	122.46
521.523	138.35
521.722	138.35
521.921	136.59
522.12	224.9
522.319	95.96
522.518	212.53
522.717	74.77
522.916	60.64
523.115	154.25
523.314	113.63
523.513	150.72
523.712	117.16
523.911	110.09
524.11	122.46
524.309	129.52
524.508	131.29
524.707	233.73
524.906	233.73
525.104	152.48
525.303	60.64
525.502	247.86
525.701	186.04
525.9	203.7
526.098	219.6
526.297	124.22
526.496	168.38
526.695	159.55
526.893	97.73
527.092	168.38
527.291	95.96
527.489	178.98
527.688	184.27
527.886	242.56
528.085	140.12
528.284	106.56
528.482	131.29
528.681	207.23
528.879	159.55
529.078	182.51
529.276	125.99
529.475	117.16
529.673	71.24
529.872	194.87
530.07	178.98
530.269	133.05
530.467	152.48
530.665	221.36
530.864	152.48
531.062	163.08
531.261	118.92
531.459	117.16
531.657	60.64
531.855	191.34
532.054	122.46
532.252	263.75
532.45	184.27
532.649	173.68
532.847	136.59
533.045	156.01
533.243	99.5
533.441	154.25
533.639	92.43
533.838	201.94
534.036	65.94
534.234	62.41
534.432	51.81
534.63	58.87
534.828	46.51
535.026	81.83
535.224	210.77
535.422	163.08
535.62	85.37
535.818	95.96
536.016	184.27
536.214	122.46
536.412	129.52
536.61	207.23
536.808	180.74
537.006	108.33
537.204	173.68
537.401	95.96
537.599	184.27
537.797	156.01
537.995	159.55
538.193	177.21
538.391	-13.54
538.588	193.1
538.786	136.59
538.984	159.55
539.182	133.05
539.379	256.69
539.577	156.01
539.775	85.37
539.972	198.4
540.17	154.25
540.368	67.7
540.565	154.25
540.763	256.69
540.96	147.18
541.158	270.82
541.355	286.71
541.553	228.43
541.75	293.78
541.948	224.9
542.145	205.47
542.343	322.04
542.54	201.94
542.738	300.84
542.935	284.95
543.133	161.31
543.33	325.57
543.527	226.66
543.725	237.26
543.922	254.92
544.119	235.49
544.317	224.9
544.514	200.17
544.711	191.34
544.908	249.62
545.106	269.05
545.303	246.09
545.5	184.27
545.697	228.43
545.895	113.63
546.092	228.43
546.289	203.7
546.486	168.38
546.683	258.45
546.88	217.83
547.077	127.76
547.274	143.65
547.471	90.67
547.668	212.53
547.865	196.64
548.063	246.09
548.259	166.61
548.456	76.54
548.653	203.7
548.85	118.92
549.047	140.12
549.244	177.21
549.441	196.64
549.638	101.26
549.835	118.92
550.032	104.79
550.229	136.59
550.425	175.44
550.622	156.01
550.819	136.59
551.016	94.2
551.212	95.96
551.409	73
551.606	87.13
551.803	103.03
551.999	159.55
552.196	120.69
552.393	244.32
552.589	71.24
552.786	88.9
552.983	145.42
553.179	154.25
553.376	173.68
553.572	164.85
553.769	173.68
553.965	127.76
554.162	51.81
554.358	166.61
554.555	67.7
554.751	110.09
554.948	94.2
555.144	152.48
555.341	177.21
555.537	85.37
555.733	124.22
555.93	74.77
556.126	138.35
556.322	150.72
556.519	48.28
556.715	81.83
556.911	92.43
557.108	163.08
557.304	74.77
557.5	143.65
557.696	46.51
557.893	143.65
558.089	140.12
558.285	148.95
558.481	103.03
558.677	103.03
558.873	134.82
559.07	23.55
559.266	94.2
559.462	67.7
559.658	85.37
559.854	97.73
560.05	145.42
560.246	113.63
560.442	156.01
560.638	157.78
560.834	203.7
561.03	81.83
561.226	125.99
561.422	150.72
561.618	60.64
561.813	161.31
562.009	212.53
562.205	136.59
562.401	141.89
562.597	148.95
562.793	150.72
562.988	27.08
563.184	110.09
563.38	150.72
563.576	80.07
563.772	78.3
563.967	104.79
564.163	78.3
564.359	103.03
564.554	131.29
564.75	101.26
564.946	207.23
565.141	143.65
565.337	205.47
565.532	156.01
565.728	170.14
565.923	173.68
566.119	138.35
566.315	97.73
566.51	200.17
566.706	108.33
566.901	53.57
567.096	187.81
567.292	207.23
567.487	311.44
567.683	244.32
567.878	283.18
568.074	212.53
568.269	283.18
568.464	274.35
568.66	283.18
568.855	246.09
569.05	267.29
569.245	270.82
569.441	313.21
569.636	302.61
569.831	239.03
570.026	309.67
570.222	261.99
570.417	226.66
570.612	186.04
570.807	171.91
571.002	207.23
571.197	97.73
571.393	193.1
571.588	88.9
571.783	269.05
571.978	300.84
572.173	422.71
572.368	406.82
572.563	318.51
572.758	390.92
572.953	378.56
573.148	412.11
573.343	293.78
573.538	288.48
573.733	240.79
573.927	244.32
574.122	191.34
574.317	205.47
574.512	228.43
574.707	348.53
574.902	424.48
575.096	429.78
575.291	443.91
575.486	290.25
575.681	378.56
575.876	355.6
576.07	299.08
576.265	256.69
576.46	246.09
576.654	410.35
576.849	360.89
577.044	332.64
577.238	385.62
577.433	295.54
577.627	433.31
577.822	387.39
578.017	359.13
578.211	449.2
578.406	390.92
578.6	533.98
578.795	426.24
578.989	458.04
579.184	399.75
579.378	431.54
579.572	459.8
579.767	512.79
579.961	458.04
580.156	622.29
580.35	888.99
580.544	857.2
580.739	890.76
580.933	705.3
581.127	698.24
581.322	609.93
581.516	530.45
581.71	518.09
581.904	415.65
582.099	352.06
582.293	491.59
582.487	475.7
582.681	537.51
582.875	514.55
583.069	496.89
583.263	382.09
583.458	385.62
583.652	352.06
583.846	320.27
584.04	272.58
584.234	419.18
584.428	343.23
584.622	274.35
584.816	233.73
585.01	286.71
585.204	237.26
585.398	311.44
585.592	309.67
585.786	277.88
585.979	311.44
586.173	367.96
586.367	369.73
586.561	299.08
586.755	360.89
586.949	277.88
587.142	309.67
587.336	307.91
587.53	484.53
587.724	571.07
587.917	700.01
588.111	585.2
588.305	505.72
588.499	473.93
588.692	306.14
588.886	281.42
589.08	337.93
589.273	300.84
589.467	316.74
589.66	300.84
589.854	154.25
590.047	193.1
590.241	237.26
590.434	171.91
590.628	293.78
590.821	401.52
591.015	357.36
591.208	322.04
591.402	332.64
591.595	297.31
591.789	355.6
591.982	314.97
592.175	466.87
592.369	479.23
592.562	323.8
592.755	378.56
592.949	523.39
593.142	592.27
593.335	482.76
593.529	369.73
593.722	371.49
593.915	429.78
594.108	373.26
594.301	332.64
594.495	201.94
594.688	353.83
594.881	348.53
595.074	366.19
595.267	284.95
595.46	336.17
595.653	263.75
595.846	410.35
596.039	454.5
596.232	445.67
596.425	456.27
596.618	565.77
596.811	585.2
597.004	438.61
597.197	503.96
597.39	583.44
597.583	433.31
597.776	345
597.969	309.67
598.162	375.02
598.355	325.57
598.548	325.57
598.74	281.42
598.933	136.59
599.126	224.9
599.319	253.16
599.511	373.26
599.704	284.95
599.897	247.86
600.09	239.03
600.282	242.56
600.475	168.38
600.668	311.44
600.86	465.1
601.053	496.89
601.245	481
601.438	443.91
601.631	479.23
601.823	387.39
602.016	636.42
602.208	818.34
602.401	888.99
602.593	588.73
602.786	419.18
602.978	369.73
603.171	380.32
603.363	348.53
603.555	300.84
603.748	304.38
603.94	360.89
604.133	341.47
604.325	314.97
604.517	329.1
604.71	327.34
604.902	341.47
605.094	99.5
605.286	233.73
605.479	343.23
605.671	307.91
605.863	318.51
606.055	482.76
606.247	482.76
606.44	484.53
606.632	350.3
606.824	253.16
607.016	254.92
607.208	325.57
607.4	261.99
607.592	364.43
607.784	334.4
607.976	200.17
608.168	408.58
608.36	426.24
608.552	452.74
608.744	396.22
608.936	343.23
609.128	263.75
609.32	226.66
609.512	253.16
609.704	136.59
609.896	226.66
610.087	230.2
610.279	193.1
610.471	235.49
610.663	198.4
610.855	157.78
611.046	290.25
611.238	382.09
611.43	424.48
611.622	362.66
611.813	367.96
612.005	359.13
612.197	246.09
612.388	394.45
612.58	463.33
612.772	634.66
612.963	461.57
613.155	397.98
613.346	330.87
613.538	293.78
613.729	337.93
613.921	272.58
614.112	251.39
614.304	210.77
614.495	209
614.687	323.8
614.878	509.26
615.07	442.14
615.261	564.01
615.452	498.66
615.644	401.52
615.835	302.61
616.026	357.36
616.218	256.69
616.409	254.92
616.6	397.98
616.792	436.84
616.983	307.91
617.174	247.86
617.365	277.88
617.557	272.58
617.748	207.23
617.939	212.53
618.13	125.99
618.321	117.16
618.512	67.7
618.703	279.65
618.894	288.48
619.086	327.34
619.277	265.52
619.468	244.32
619.659	156.01
619.85	203.7
620.041	201.94
620.232	145.42
620.423	184.27
620.613	73
620.804	193.1
620.995	57.11
621.186	134.82
621.377	196.64
621.568	219.6
621.759	244.32
621.95	161.31
622.14	224.9
622.331	288.48
622.522	235.49
622.713	332.64
622.903	295.54
623.094	352.06
623.285	242.56
623.475	187.81
623.666	140.12
623.857	168.38
624.047	196.64
624.238	272.58
624.429	99.5
624.619	150.72
624.81	87.13
625	37.68
625.191	159.55
625.381	76.54
625.572	99.5
625.762	138.35
625.953	148.95
626.143	145.42
626.334	115.39
626.524	133.05
626.715	219.6
626.905	171.91
627.095	209
627.286	205.47
627.476	168.38
627.666	90.67
627.857	145.42
628.047	106.56
628.237	147.18
628.427	55.34
628.618	122.46
628.808	71.24
628.998	37.68
629.188	189.57
629.378	108.33
629.569	113.63
629.759	147.18
629.949	81.83
630.139	94.2
630.329	99.5
630.519	87.13
630.709	108.33
630.899	148.95
631.089	124.22
631.279	175.44
631.469	159.55
631.659	141.89
631.849	224.9
632.039	177.21
632.229	164.85
632.419	223.13
632.609	133.05
632.799	90.67
632.988	178.98
633.178	127.76
633.368	78.3
633.558	90.67
633.748	125.99
633.937	152.48
634.127	30.61
634.317	76.54
634.507	150.72
634.696	87.13
634.886	95.96
635.076	159.55
635.265	115.39
635.455	177.21
635.645	134.82
635.834	141.89
636.024	223.13
636.213	134.82
636.403	20.02
636.592	76.54
636.782	30.61
636.971	113.63
637.161	80.07
637.35	87.13
637.54	157.78
637.729	127.76
637.919	94.2
638.108	85.37
638.297	148.95
638.487	60.64
638.676	73
638.866	46.51
639.055	62.41
639.244	115.39
639.433	95.96
639.623	85.37
639.812	148.95
640.001	41.21
640.19	120.69
640.38	67.7
640.569	101.26
640.758	118.92
640.947	140.12
641.136	58.87
641.325	120.69
641.514	138.35
641.703	76.54
641.893	12.95
642.082	81.83
642.271	69.47
642.46	95.96
642.649	115.39
642.838	97.73
643.027	156.01
643.215	111.86
643.404	60.64
643.593	74.77
643.782	94.2
643.971	76.54
644.16	69.47
644.349	74.77
644.538	191.34
644.726	134.82
644.915	256.69
645.104	154.25
645.293	138.35
645.481	73
645.67	175.44
645.859	134.82
646.048	200.17
646.236	124.22
646.425	117.16
646.614	125.99
646.802	122.46
646.991	117.16
647.179	99.5
647.368	184.27
647.557	189.57
647.745	163.08
647.934	247.86
648.122	210.77
648.311	246.09
648.499	129.52
648.687	143.65
648.876	242.56
649.064	193.1
649.253	228.43
649.441	184.27
649.63	322.04
649.818	258.45
650.006	311.44
650.195	293.78
650.383	345
650.571	261.99
650.759	410.35
650.948	383.86
651.136	385.62
651.324	426.24
651.512	521.62
651.7	592.27
651.889	632.89
652.077	781.25
652.265	724.73
652.453	878.39
652.641	1072.67
652.829	1067.38
653.017	1194.54
653.205	1381.76
653.393	1727.94
653.581	1835.67
653.769	1916.92
653.957	2157.12
654.145	2215.41
654.333	2794.72
654.521	3750.24
654.709	5867.92
654.897	10279.9
655.085	33876.38
655.273	61966.09
655.461	61971.39
655.648	62481.82
655.836	62481.82
656.024	62481.82
656.212	62481.82
656.399	62481.82
656.587	62481.82
656.775	62481.82
656.963	62481.82
657.15	62481.82
657.338	62481.82
657.526	62481.82
657.713	62481.82
657.901	62481.82
658.089	62481.82
658.276	62481.82
658.464	62481.82
658.651	62481.82
658.839	62481.82
659.026	62481.82
659.214	62481.82
659.401	62481.82
659.589	62481.82
659.776	62481.82
659.964	62481.82
660.151	62481.82
660.338	62264.58
660.526	19651.37
660.713	2914.83
660.901	2102.37
661.088	1818.01
661.275	1463.01
661.463	1374.7
661.65	1183.95
661.837	1229.87
662.024	1053.25
662.212	1037.35
662.399	961.4
662.586	880.16
662.773	783.02
662.96	712.37
663.147	761.82
663.335	684.11
663.522	643.49
663.709	648.79
663.896	546.35
664.083	641.72
664.27	592.27
664.457	546.35
664.644	454.5
664.831	389.15
665.018	546.35
665.205	440.37
665.392	382.09
665.579	406.82
665.766	355.6
665.953	477.46
666.139	424.48
666.326	401.52
666.513	371.49
666.7	360.89
666.887	322.04
667.074	334.4
667.26	352.06
667.447	293.78
667.634	284.95
667.821	300.84
668.007	297.31
668.194	263.75
668.381	293.78
668.567	251.39
668.754	339.7
668.94	383.86
669.127	272.58
669.314	251.39
669.5	300.84
669.687	242.56
669.873	272.58
670.06	247.86
670.246	269.05
670.433	276.12
670.619	272.58
670.806	258.45
670.992	196.64
671.178	207.23
671.365	235.49
671.551	209
671.738	152.48
671.924	246.09
672.11	226.66
672.297	279.65
672.483	173.68
672.669	247.86
672.855	147.18
673.042	221.36
673.228	244.32
673.414	233.73
673.6	200.17
673.786	214.3
673.973	166.61
674.159	212.53
674.345	133.05
674.531	156.01
674.717	163.08
674.903	156.01
675.089	136.59
675.275	115.39
675.461	178.98
675.647	104.79
675.833	221.36
676.019	113.63
676.205	191.34
676.391	145.42
676.577	182.51
676.763	60.64
676.949	125.99
677.134	214.3
677.32	198.4
677.506	129.52
677.692	60.64
677.878	136.59
678.064	99.5
678.249	168.38
678.435	205.47
678.621	106.56
678.806	145.42
678.992	87.13
679.178	147.18
679.363	140.12
679.549	104.79
679.735	120.69
679.92	159.55
680.106	83.6
680.291	157.78
680.477	80.07
680.663	136.59
680.848	106.56
681.034	83.6
681.219	85.37
681.404	127.76
681.59	148.95
681.775	94.2
681.961	133.05
682.146	76.54
682.332	154.25
682.517	161.31
682.702	194.87
682.888	83.6
683.073	125.99
683.258	235.49
683.443	111.86
683.629	177.21
683.814	73
683.999	125.99
684.184	95.96
684.37	118.92
684.555	164.85
684.74	141.89
684.925	140.12
685.11	14.72
685.295	125.99
685.48	103.03
685.665	65.94
685.85	104.79
686.035	129.52
686.22	94.2
686.405	78.3
686.59	74.77
686.775	97.73
686.96	124.22
687.145	110.09
687.33	23.55
687.515	117.16
687.7	51.81
687.885	95.96
688.07	67.7
688.254	78.3
688.439	85.37
688.624	92.43
688.809	99.5
688.993	152.48
689.178	69.47
689.363	115.39
689.548	111.86
689.732	76.54
689.917	88.9
690.102	58.87
690.286	159.55
690.471	101.26
690.655	87.13
690.84	85.37
691.025	99.5
691.209	173.68
691.394	50.04
691.578	81.83
691.763	9.42
691.947	23.55
692.132	152.48
692.316	34.15
692.5	0.59
692.685	-13.54
692.869	74.77
693.054	-6.48
693.238	87.13
693.422	104.79
693.607	125.99
693.791	138.35
693.975	58.87
694.159	78.3
694.344	20.02
694.528	51.81
694.712	60.64
694.896	-6.48
695.081	154.25
695.265	101.26
695.449	25.32
695.633	57.11
695.817	9.42
696.001	41.21
696.185	60.64
696.369	21.78
696.553	41.21
696.737	113.63
696.921	76.54
697.105	201.94
697.289	69.47
697.473	27.08
697.657	2.35
697.841	37.68
698.025	28.85
698.209	115.39
698.393	12.95
698.577	53.57
698.76	50.04
698.944	73
699.128	-34.74
699.312	65.94
699.496	113.63
699.679	73
699.863	110.09
700.047	55.34
700.23	78.3
700.414	55.34
700.598	60.64
700.781	50.04
700.965	9.42
701.149	97.73
701.332	136.59
701.516	110.09
701.699	65.94
701.883	85.37
702.066	129.52
702.25	88.9
702.433	42.98
702.617	64.17
702.8	55.34
702.984	127.76
703.167	50.04
703.35	20.02
703.534	62.41
703.717	76.54
703.901	80.07
704.084	65.94
704.267	41.21
704.45	62.41
704.634	-8.24
704.817	74.77
705	78.3
705.183	48.28
705.367	20.02
705.55	122.46
705.733	-6.48
705.916	62.41
706.099	87.13
706.282	44.74
706.465	53.57
706.649	104.79
706.832	97.73
707.015	60.64
707.198	32.38
707.381	32.38
707.564	51.81
707.747	80.07
707.93	78.3
708.113	14.72
708.295	53.57
708.478	113.63
708.661	57.11
708.844	48.28
709.027	129.52
709.21	131.29
709.393	27.08
709.575	83.6
709.758	-54.16
709.941	53.57
710.124	11.19
710.306	83.6
710.489	55.34
710.672	156.01
710.854	92.43
711.037	-10.01
711.22	147.18
711.402	83.6
711.585	73
711.768	37.68
711.95	57.11
712.133	41.21
712.315	23.55
712.498	67.7
712.68	32.38
712.863	104.79
713.045	-36.5
713.228	21.78
713.41	67.7
713.592	0.59
713.775	58.87
713.957	41.21
714.139	20.02
714.322	71.24
714.504	-1.18
714.686	35.91
714.869	-32.97
715.051	111.86
715.233	23.55
715.415	-40.03
715.598	2.35
715.78	42.98
715.962	37.68
716.144	50.04
716.326	39.45
716.509	7.65
716.691	140.12
716.873	50.04
717.055	62.41
717.237	106.56
717.419	5.89
717.601	23.55
717.783	5.89
717.965	69.47
718.147	129.52
718.329	83.6
718.511	39.45
718.693	37.68
718.875	104.79
719.056	81.83
719.238	55.34
719.42	103.03
719.602	28.85
719.784	12.95
719.966	-17.07
720.147	5.89
720.329	7.65
720.511	-43.57
720.692	115.39
720.874	134.82
721.056	-18.84
721.238	94.2
721.419	44.74
721.601	-48.86
721.782	80.07
721.964	-17.07
722.146	67.7
722.327	117.16
722.509	104.79
722.69	46.51
722.872	32.38
723.053	131.29
723.235	127.76
723.416	12.95
723.598	85.37
723.779	67.7
723.96	103.03
724.142	37.68
724.323	73
724.504	104.79
724.686	28.85
724.867	60.64
725.048	50.04
725.23	117.16
725.411	55.34
725.592	104.79
725.773	81.83
725.955	214.3
726.136	113.63
726.317	51.81
726.498	55.34
726.679	53.57
726.86	-17.07
727.041	118.92
727.223	64.17
727.404	111.86
727.585	99.5
727.766	21.78
727.947	104.79
728.128	97.73
728.309	143.65
728.49	41.21
728.671	-1.18
728.851	65.94
729.032	51.81
729.213	78.3
729.394	41.21
729.575	80.07
729.756	11.19
729.937	141.89
730.117	58.87
730.298	9.42
730.479	14.72
730.66	64.17
730.84	80.07
731.021	32.38
731.202	7.65
731.382	97.73
731.563	-4.71
731.744	60.64
731.924	32.38
732.105	65.94
732.286	12.95
732.466	39.45
732.647	-17.07
732.827	4.12
733.008	0.59
733.188	37.68
733.369	0.59
733.549	60.64
733.73	50.04
733.91	44.74
734.09	152.48
734.271	73
734.451	46.51
734.631	41.21
734.812	39.45
734.992	106.56
735.172	46.51
735.353	78.3
735.533	2.35
735.713	134.82
735.893	104.79
736.074	-17.07
736.254	90.67
736.434	25.32
736.614	58.87
736.794	83.6
736.974	-27.67
737.154	80.07
737.335	21.78
737.515	64.17
737.695	69.47
737.875	76.54
738.055	25.32
738.235	20.02
738.415	30.61
738.595	34.15
738.775	37.68
738.954	99.5
739.134	-29.44
739.314	28.85
739.494	-1.18
739.674	21.78
739.854	-11.77
740.034	58.87
740.213	2.35
740.393	34.15
740.573	-32.97
740.753	67.7
740.932	42.98
741.112	4.12
741.292	44.74
741.471	39.45
741.651	71.24
741.831	80.07
742.01	106.56
742.19	-17.07
742.37	-6.48
742.549	83.6
742.729	7.65
742.908	34.15
743.088	74.77
743.267	41.21
743.447	94.2
743.626	58.87
743.805	118.92
743.985	50.04
744.164	83.6
744.344	0.59
744.523	53.57
744.702	37.68
744.882	51.81
745.061	2.35
745.24	2.35
745.42	35.91
745.599	57.11
745.778	18.25
745.957	21.78
746.137	57.11
746.316	55.34
746.495	9.42
746.674	50.04
746.853	115.39
747.032	62.41
747.211	37.68
747.39	28.85
747.569	-32.97
747.749	53.57
747.928	69.47
748.107	-48.86
748.286	94.2
748.464	64.17
748.643	64.17
748.822	41.21
749.001	23.55
749.18	4.12
749.359	48.28
749.538	5.89
749.717	65.94
749.896	39.45
750.074	88.9
750.253	140.12
750.432	5.89
750.611	46.51
750.789	106.56
750.968	7.65
751.147	12.95
751.325	90.67
751.504	35.91
751.683	65.94
751.861	-25.9
752.04	34.15
752.219	9.42
752.397	94.2
752.576	32.38
752.754	50.04
752.933	147.18
753.111	120.69
753.29	60.64
753.468	106.56
753.647	37.68
753.825	55.34
754.003	-1.18
754.182	64.17
754.36	62.41
754.539	46.51
754.717	-47.1
754.895	51.81
755.074	-1.18
755.252	16.48
755.43	53.57
755.608	7.65
755.787	92.43
755.965	-4.71
756.143	25.32
756.321	11.19
756.499	34.15
756.677	62.41
756.856	85.37
757.034	50.04
757.212	0.59
757.39	9.42
757.568	12.95
757.746	55.34
757.924	23.55
758.102	48.28
758.28	67.7
758.458	5.89
758.636	90.67
758.814	28.85
758.992	118.92
759.169	32.38
759.347	51.81
759.525	115.39
759.703	90.67
759.881	30.61
760.059	92.43
760.236	-13.54
760.414	28.85
760.592	-15.31
760.77	-6.48
760.947	58.87
761.125	-25.9
761.303	111.86
761.48	-47.1
761.658	2.35
761.835	81.83
762.013	46.51
762.191	34.15
762.368	-55.93
762.546	74.77
762.723	42.98
762.901	4.12
763.078	-15.31
763.256	62.41
763.433	-34.74
763.611	55.34
763.788	-17.07
763.965	69.47
764.143	30.61
764.32	-22.37
764.497	58.87
764.675	-24.14
764.852	55.34
765.029	92.43
765.207	-25.9
765.384	53.57
765.561	11.19
765.738	12.95
765.915	-47.1
766.093	42.98
766.27	42.98
766.447	81.83
766.624	2.35
766.801	14.72
766.978	48.28
767.155	9.42
767.332	42.98
767.509	39.45
767.686	5.89
767.863	23.55
768.04	50.04
768.217	20.02
768.394	64.17
768.571	37.68
768.748	32.38
768.925	5.89
769.102	9.42
769.279	-36.5
769.455	42.98
769.632	57.11
769.809	-11.77
769.986	-34.74
770.163	101.26
770.339	-11.77
770.516	5.89
770.693	67.7
770.869	48.28
771.046	103.03
771.223	25.32
771.399	48.28
771.576	85.37
771.752	76.54
771.929	35.91
772.106	81.83
772.282	20.02
772.459	27.08
772.635	76.54
772.812	37.68
772.988	25.32
773.165	83.6
773.341	51.81
773.517	111.86
773.694	-20.61
773.87	39.45
774.046	69.47
774.223	32.38
774.399	73
774.575	2.35
774.752	50.04
774.928	27.08
775.104	46.51
775.28	46.51
775.457	276.12
775.633	754.76
775.809	2065.28
775.985	3624.84
776.161	4313.66
776.337	3944.52
776.513	2725.84
776.69	2042.32
776.866	1786.22
777.042	1459.47
777.218	1113.3
777.394	966.7
777.57	1019.69
777.746	772.42
777.922	795.38
778.097	770.65
778.273	609.93
778.449	643.49
778.625	544.58
778.801	360.89
778.977	320.27
779.153	219.6
779.328	136.59
779.504	76.54
779.68	9.42
779.856	166.61
780.031	104.79
780.207	67.7
780.383	9.42
780.559	-20.61
780.734	-70.06
780.91	48.28
781.085	-41.8
781.261	46.51
781.437	-75.36
781.612	58.87
781.788	20.02
781.963	-57.7
782.139	60.64
782.314	-6.48
782.49	-45.33
782.665	-29.44
782.841	12.95
783.016	25.32
783.191	12.95
783.367	7.65
783.542	55.34
783.717	-4.71
783.893	18.25
784.068	-40.03
784.243	-18.84
784.419	51.81
784.594	-6.48
784.769	-27.67
784.944	11.19
785.12	-41.8
785.295	57.11
785.47	-1.18
785.645	55.34
785.82	-20.61
785.995	23.55
786.17	44.74
786.345	12.95
786.52	5.89
786.695	2.35
786.87	32.38
787.045	18.25
787.22	-25.9
787.395	48.28
787.57	-41.8
787.745	50.04
787.92	21.78
788.095	-66.53
788.27	65.94
788.445	20.02
788.619	12.95
788.794	23.55
788.969	-45.33
789.144	46.51
789.319	27.08
789.493	-4.71
789.668	25.32
789.843	35.91
790.017	57.11
790.192	51.81
790.367	85.37
790.541	25.32
790.716	-8.24
790.89	-15.31
791.065	4.12
791.24	-36.5
791.414	14.72
791.589	-29.44
791.763	-25.9
791.938	85.37
792.112	-43.57
792.286	37.68
792.461	20.02
792.635	67.7
792.81	27.08
792.984	69.47
793.158	14.72
793.333	65.94
793.507	88.9
793.681	-18.84
793.856	76.54
794.03	58.87
794.204	39.45
794.378	14.72
794.552	14.72
794.727	65.94
794.901	39.45
795.075	11.19
795.249	2.35
795.423	-22.37
795.597	7.65
795.771	131.29
795.945	-10.01
796.119	-87.72
796.293	30.61
796.467	12.95
796.641	-41.8
796.815	-52.4
796.989	42.98
797.163	7.65
797.337	20.02
797.511	90.67
797.685	-62.99
797.859	23.55
798.032	9.42
798.206	16.48
798.38	27.08
798.554	-68.29
798.727	-13.54
798.901	-48.86
799.075	-45.33
799.249	55.34
799.422	42.98
799.596	-40.03
799.77	27.08
799.943	71.24
800.117	-61.23
800.29	5.89
800.464	14.72
800.637	2.35
800.811	-32.97
800.985	-17.07
801.158	83.6
801.331	23.55
801.505	4.12
801.678	64.17
801.852	-6.48
802.025	20.02
802.199	35.91
802.372	-31.2
802.545	-71.83
802.719	115.39
802.892	-11.77
803.065	-32.97
803.238	-31.2
803.412	-40.03
803.585	18.25
803.758	25.32
803.931	-2.94
804.104	-31.2
804.278	-38.27
804.451	81.83
804.624	21.78
804.797	71.24
804.97	-70.06
805.143	-17.07
805.316	-24.14
805.489	-18.84
805.662	12.95
805.835	5.89
806.008	-52.4
806.181	21.78
806.354	18.25
806.527	55.34
806.7	-18.84
806.873	-27.67
807.045	16.48
807.218	60.64
807.391	-18.84
807.564	-31.2
807.737	101.26
807.909	60.64
808.082	46.51
808.255	-17.07
808.428	-6.48
808.6	21.78
808.773	50.04
808.946	50.04
809.118	-48.86
809.291	5.89
809.463	55.34
809.636	-1.18
809.809	9.42
809.981	-11.77
810.154	34.15
810.326	-43.57
810.499	-8.24
810.671	-41.8
810.843	71.24
811.016	2.35
811.188	-15.31
811.361	30.61
811.533	87.13
811.705	-32.97
811.878	-10.01
812.05	16.48
812.222	14.72
812.395	21.78
812.567	0.59
812.739	-38.27
812.911	18.25
813.083	23.55
813.256	2.35
813.428	-4.71
813.6	64.17
813.772	14.72
813.944	-101.85
814.116	28.85
814.288	28.85
814.46	-25.9
814.632	30.61
814.804	7.65
814.976	2.35
815.148	-1.18
815.32	18.25
815.492	35.91
815.664	-68.29
815.836	-10.01
816.008	-43.57
816.18	-34.74
816.352	34.15
816.523	-6.48
816.695	78.3
816.867	-1.18
817.039	37.68
817.21	9.42
817.382	-8.24
817.554	-36.5
817.726	58.87
817.897	-38.27
818.069	4.12
818.241	58.87
818.412	-50.63
818.584	25.32
818.755	-2.94
818.927	14.72
819.098	-62.99
819.27	97.73
819.441	64.17
819.613	-2.94
819.784	-75.36
819.956	-15.31
820.127	20.02
820.299	-18.84
820.47	103.03
820.641	39.45
820.813	34.15
820.984	5.89
821.155	4.12
821.327	99.5
821.498	-10.01
821.669	41.21
821.84	-1.18
822.012	11.19
822.183	5.89
822.354	81.83
822.525	-4.71
822.696	-18.84
822.867	-13.54
823.039	12.95
823.21	18.25
823.381	-34.74
823.552	7.65
823.723	23.55
823.894	55.34
824.065	-17.07
824.236	-1.18
824.407	20.02
824.578	-13.54
824.749	-85.96
824.919	-66.53
825.09	16.48
825.261	-22.37
825.432	-78.89
825.603	-25.9
825.774	-10.01
825.944	-2.94
826.115	55.34
826.286	44.74
826.457	-27.67
826.627	7.65
826.798	-6.48
826.969	-11.77
827.139	67.7
827.31	-40.03
827.481	9.42
827.651	23.55
827.822	-27.67
827.992	-62.99
828.163	110.09
828.333	-62.99
828.504	39.45
828.674	-64.76
828.845	-43.57
829.015	-10.01
829.186	34.15
829.356	25.32
829.527	-15.31
829.697	41.21
829.867	7.65
830.038	37.68
830.208	35.91
830.378	-18.84
830.548	34.15
830.719	62.41
830.889	-13.54
831.059	-22.37
831.229	-59.46
831.399	73
831.57	20.02
831.74	-8.24
831.91	2.35
832.08	-2.94
832.25	-34.74
832.42	-85.96
832.59	9.42
832.76	-31.2
832.93	18.25
833.1	20.02
833.27	-57.7
833.44	25.32
833.61	-13.54
833.78	-48.86
833.95	-11.77
834.12	-8.24
834.29	50.04
834.459	-18.84
834.629	-57.7
834.799	32.38
834.969	41.21
835.139	20.02
835.308	-31.2
835.478	62.41
835.648	4.12
835.817	-1.18
835.987	-54.16
836.157	0.59
836.326	-11.77
836.496	28.85
836.665	5.89
836.835	-20.61
837.005	-36.5
837.174	39.45
837.344	2.35
837.513	65.94
837.683	-18.84
837.852	58.87
838.021	25.32
838.191	11.19
838.36	25.32
838.53	28.85
838.699	7.65
838.868	81.83
839.038	-31.2
839.207	46.51
839.376	-1.18
839.546	-29.44
839.715	7.65
839.884	-13.54
840.053	50.04
840.222	41.21
840.392	30.61
840.561	-93.02
840.73	-68.29
840.899	-29.44
841.068	-36.5
841.237	-55.93
841.406	44.74
841.575	11.19
841.744	9.42
841.913	-54.16
842.082	-4.71
842.251	42.98
842.42	-27.67
842.589	60.64
842.758	21.78
842.927	57.11
843.096	55.34
843.264	76.54
843.433	163.08
843.602	348.53
843.771	518.09
843.94	701.77
844.108	641.72
844.277	652.32
844.446	431.54
844.614	389.15
844.783	357.36
844.952	316.74
845.12	276.12
845.289	210.77
845.458	260.22
845.626	293.78
845.795	320.27
845.963	260.22
846.132	224.9
846.3	37.68
846.469	152.48
846.637	110.09
846.806	55.34
846.974	65.94
847.142	110.09
847.311	-20.61
847.479	64.17
847.648	20.02
847.816	-27.67
847.984	53.57
848.152	-22.37
848.321	-25.9
848.489	87.13
848.657	30.61
848.825	-2.94
848.994	27.08
849.162	67.7
849.33	78.3
849.498	-55.93
849.666	-59.46
849.834	34.15
850.002	53.57
850.17	-36.5
850.338	-57.7
850.506	-13.54
850.674	-11.77
850.842	-17.07
851.01	-11.77
851.178	5.89
851.346	34.15
851.514	-2.94
851.682	-34.74
851.85	-38.27
852.018	83.6
852.186	80.07
852.353	50.04
852.521	2.35
852.689	-6.48
852.857	-4.71
853.024	57.11
853.192	-25.9
853.36	18.25
853.527	-11.77
853.695	-48.86
853.863	-8.24
854.03	4.12
854.198	-13.54
854.366	21.78
854.533	34.15
854.701	-29.44
854.868	71.24
855.036	41.21
855.203	-75.36
855.371	122.46
855.538	27.08
855.705	-29.44
855.873	-8.24
856.04	85.37
856.208	0.59
856.375	5.89
856.542	-1.18
856.71	5.89
856.877	-8.24
857.044	30.61
857.211	48.28
857.379	-8.24
857.546	-8.24
857.713	30.61
857.88	25.32
858.047	2.35
858.214	-8.24
858.381	2.35
858.549	-38.27
858.716	88.9
858.883	14.72
859.05	12.95
859.217	-24.14
859.384	-34.74
859.551	78.3
859.718	-96.55
859.885	-25.9
860.052	18.25
860.218	-32.97
860.385	30.61
860.552	60.64
860.719	-55.93
860.886	67.7
861.053	-2.94
861.219	0.59
861.386	0.59
861.553	-64.76
861.72	-55.93
861.886	78.3
862.053	-32.97
862.22	23.55
862.386	-8.24
862.553	-36.5
862.72	5.89
862.886	11.19
863.053	-94.79
863.219	-47.1
863.386	30.61
863.552	-15.31
863.719	-6.48
863.885	-24.14
864.052	11.19
864.218	-24.14
864.385	-15.31
864.551	-4.71
864.717	-2.94
864.884	-80.66
865.05	28.85
865.216	-8.24
865.383	25.32
865.549	32.38
865.715	-6.48
865.881	12.95
866.048	-103.62
866.214	-62.99
866.38	14.72
866.546	-8.24
866.712	-43.57
866.878	50.04
867.045	-4.71
867.211	-43.57
867.377	12.95
867.543	-18.84
867.709	-78.89
867.875	-34.74
868.041	62.41
868.207	16.48
868.373	95.96
868.539	20.02
868.705	76.54
868.87	-78.89
869.036	-45.33
869.202	-41.8
869.368	23.55
869.534	-64.76
869.7	-47.1
869.865	-17.07
870.031	-4.71
870.197	-34.74
870.363	16.48
870.528	-52.4
870.694	28.85
870.86	-24.14
871.025	65.94
871.191	4.12
871.356	-52.4
871.522	30.61
871.688	92.43
871.853	14.72
872.019	-6.48
872.184	46.51
872.35	-70.06
872.515	-22.37
872.68	-15.31
872.846	-103.62
873.011	-62.99
873.177	-36.5
873.342	34.15
873.507	-25.9
873.673	-48.86
873.838	-29.44
874.003	2.35
874.169	2.35
874.334	-17.07
874.499	-25.9
874.664	73
874.829	35.91
874.995	25.32
875.16	-24.14
875.325	-34.74
875.49	35.91
875.655	-43.57
875.82	127.76
875.985	-2.94
876.15	9.42
876.315	41.21
876.48	-15.31
876.645	9.42
876.81	-87.72
876.975	64.17
877.14	-15.31
877.305	23.55
877.47	11.19
877.635	-52.4
877.799	55.34
877.964	-8.24
878.129	103.03
878.294	11.19
878.459	42.98
878.623	-32.97
878.788	87.13
878.953	-31.2
879.117	35.91
879.282	-1.18
879.447	32.38
879.611	35.91
879.776	-55.93
879.941	-32.97
880.105	55.34
880.27	74.77
880.434	-29.44
880.599	-25.9
880.763	-20.61
880.928	23.55
881.092	-34.74
881.257	48.28
881.421	-27.67
881.585	5.89
881.75	39.45
881.914	-1.18
882.078	30.61
882.243	37.68
882.407	-11.77
882.571	14.72
882.735	48.28
882.9	14.72
883.064	-45.33
883.228	-31.2
883.392	-68.29
883.556	-18.84
883.721	44.74
883.885	42.98
884.049	-13.54
884.213	50.04
884.377	-27.67
884.541	28.85
884.705	-1.18
884.869	37.68
885.033	-29.44
885.197	80.07
885.361	-8.24
885.525	51.81
885.689	42.98
885.852	2.35
886.016	-27.67
886.18	41.21
886.344	-20.61
886.508	76.54
886.672	7.65
886.835	-50.63
886.999	48.28
887.163	30.61
887.326	2.35
887.49	20.02
887.654	-15.31
887.817	27.08
887.981	18.25
888.145	-59.46
888.308	23.55
888.472	-43.57
888.635	-32.97
888.799	-6.48
888.962	-62.99
889.126	57.11
889.289	-43.57
889.453	14.72
889.616	-36.5
889.78	44.74
889.943	-1.18
890.106	-4.71
890.27	-4.71
890.433	-40.03
890.596	39.45
890.76	-36.5
890.923	-48.86
891.086	-59.46
891.249	14.72
891.413	21.78
891.576	-8.24
891.739	34.15
891.902	21.78
892.065	62.41
892.228	44.74
892.391	-71.83
892.554	-18.84
892.717	-71.83
892.88	115.39
893.044	-10.01
893.206	37.68
893.369	71.24
893.532	-75.36
893.695	-6.48
893.858	-45.33
894.021	-13.54
894.184	-18.84
894.347	-6.48
894.51	5.89
894.673	39.45
894.835	-18.84
894.998	-38.27
895.161	41.21
895.324	-4.71
895.486	-24.14
895.649	32.38
895.812	0.59
895.974	-4.71
896.137	-27.67
896.3	35.91
896.462	-20.61
896.625	9.42
896.787	-48.86
896.95	-43.57
897.112	-25.9
897.275	-36.5
897.437	-6.48
897.6	-1.18
897.762	-114.21
897.925	-62.99
898.087	-18.84
898.249	-11.77
898.412	-64.76
898.574	-29.44
898.736	-8.24
898.899	-10.01
899.061	-38.27
899.223	-8.24
899.385	55.34
899.548	-32.97
899.71	-13.54
899.872	-45.33
900.034	-22.37
900.196	5.89
900.358	88.9
900.521	44.74
900.683	11.19
900.845	-18.84
901.007	-4.71
901.169	21.78
901.331	21.78
901.493	21.78
