Data from FLMT043001_11-38-52-208.txt Node
Date: Wed Sep 20 11:38:52 AWST 2023
User: vk1team
Spectrometer: FLMT04300
Trigger mode: 0
Integration Time (sec): 1.000000E-1
Scans to average: 1
Electric dark correction enabled: true
Nonlinearity correction enabled: false
Boxcar width: 0
XAxis mode: Wavelengths
Number of Pixels in Spectrum: 3648
>>>>>Begin Spectral Data<<<<<
195.236	-160.43
195.457	-160.43
195.678	-160.43
195.899	-114.51
196.119	-33.26
196.34	67.41
196.561	-75.65
196.782	-59.76
197.002	19.72
197.223	25.02
197.444	-29.73
197.664	17.96
197.885	58.58
198.106	-1.47
198.326	-12.07
198.547	-15.6
198.768	5.59
198.988	0.29
199.209	-15.6
199.429	39.15
199.65	-65.06
199.871	55.05
200.091	-35.03
200.312	40.92
200.532	-26.2
200.753	58.58
200.973	-61.52
201.194	42.68
201.414	30.32
201.635	-49.16
201.855	25.02
202.076	-63.29
202.296	25.02
202.516	39.15
202.737	49.75
202.957	-107.44
203.178	14.42
203.398	-5
203.618	90.37
203.839	-24.43
204.059	-1.47
204.279	-59.76
204.5	-42.09
204.72	-50.93
204.94	-33.26
205.16	33.85
205.381	37.38
205.601	10.89
205.821	-47.39
206.041	53.28
206.262	47.98
206.482	25.02
206.702	9.13
206.922	32.09
207.142	30.32
207.362	47.98
207.583	33.85
207.803	-10.3
208.023	-47.39
208.243	67.41
208.463	19.72
208.683	79.77
208.903	37.38
209.123	25.02
209.343	-12.07
209.563	-8.54
209.783	63.88
210.003	21.49
210.223	30.32
210.443	35.62
210.663	-96.85
210.883	35.62
211.103	25.02
211.323	7.36
211.543	28.55
211.763	-31.5
211.983	-13.84
212.202	115.1
212.422	-17.37
212.642	14.42
212.862	-19.13
213.082	17.96
213.302	-10.3
213.521	-8.54
213.741	-42.09
213.961	116.86
214.181	-36.8
214.4	108.03
214.62	44.45
214.84	-10.3
215.06	30.32
215.279	-29.73
215.499	60.35
215.719	46.22
215.938	2.06
216.158	17.96
216.377	33.85
216.597	-15.6
216.817	83.31
217.036	53.28
217.256	-15.6
217.475	69.18
217.695	76.24
217.914	55.05
218.134	23.26
218.354	-26.2
218.573	30.32
218.793	62.11
219.012	104.5
219.231	53.28
219.451	0.29
219.67	-31.5
219.89	-8.54
220.109	23.26
220.329	-8.54
220.548	70.94
220.767	2.06
220.987	-1.47
221.206	3.83
221.425	-33.26
221.645	32.09
221.864	32.09
222.083	-57.99
222.303	-15.6
222.522	39.15
222.741	-1.47
222.96	79.77
223.18	51.51
223.399	51.51
223.618	65.64
223.837	9.13
224.056	-20.9
224.276	56.81
224.495	3.83
224.714	-17.37
224.933	-31.5
225.152	32.09
225.371	70.94
225.59	12.66
225.809	5.59
226.028	30.32
226.248	-72.12
226.467	-80.95
226.686	69.18
226.905	-33.26
227.124	-17.37
227.343	40.92
227.562	12.66
227.781	-47.39
228	56.81
228.218	51.51
228.437	-15.6
228.656	47.98
228.875	-31.5
229.094	-95.08
229.313	70.94
229.532	58.58
229.751	-12.07
229.97	33.85
230.188	51.51
230.407	81.54
230.626	32.09
230.845	-59.76
231.064	-72.12
231.282	60.35
231.501	-26.2
231.72	16.19
231.939	83.31
232.157	26.79
232.376	2.06
232.595	-6.77
232.813	28.55
233.032	-26.2
233.251	23.26
233.469	70.94
233.688	28.55
233.907	81.54
234.125	99.2
234.344	-35.03
234.562	113.33
234.781	63.88
234.999	83.31
235.218	-49.16
235.436	-17.37
235.655	28.55
235.873	39.15
236.092	-50.93
236.31	-63.29
236.529	-26.2
236.747	-10.3
236.966	16.19
237.184	33.85
237.403	35.62
237.621	35.62
237.839	-79.18
238.058	10.89
238.276	5.59
238.494	25.02
238.713	21.49
238.931	-43.86
239.149	62.11
239.368	2.06
239.586	55.05
239.804	120.4
240.022	40.92
240.241	-12.07
240.459	49.75
240.677	-19.13
240.895	-10.3
241.113	-72.12
241.332	21.49
241.55	-45.63
241.768	17.96
241.986	44.45
242.204	44.45
242.422	-17.37
242.64	69.18
242.859	-68.59
243.077	28.55
243.295	-3.24
243.513	-19.13
243.731	47.98
243.949	-10.3
244.167	-17.37
244.385	-22.67
244.603	-56.22
244.821	9.13
245.039	44.45
245.257	139.82
245.475	-47.39
245.692	0.29
245.91	-6.77
246.128	74.47
246.346	47.98
246.564	32.09
246.782	-59.76
247	49.75
247.218	12.66
247.435	108.03
247.653	12.66
247.871	51.51
248.089	95.67
248.306	55.05
248.524	14.42
248.742	12.66
248.96	70.94
249.177	-43.86
249.395	65.64
249.613	21.49
249.83	37.38
250.048	42.68
250.266	19.72
250.483	-45.63
250.701	-49.16
250.919	28.55
251.136	7.36
251.354	58.58
251.571	5.59
251.789	-20.9
252.006	25.02
252.224	-27.96
252.441	35.62
252.659	44.45
252.876	14.42
253.094	26.79
253.311	-3.24
253.529	-31.5
253.746	7.36
253.964	-13.84
254.181	100.97
254.399	33.85
254.616	-47.39
254.833	-31.5
255.051	63.88
255.268	28.55
255.485	40.92
255.703	35.62
255.92	23.26
256.137	10.89
256.355	-42.09
256.572	55.05
256.789	0.29
257.006	0.29
257.224	33.85
257.441	42.68
257.658	19.72
257.875	-77.42
258.092	-6.77
258.31	16.19
258.527	63.88
258.744	30.32
258.961	42.68
259.178	63.88
259.395	17.96
259.612	-84.48
259.829	78.01
260.046	32.09
260.263	53.28
260.48	47.98
260.698	17.96
260.915	10.89
261.132	90.37
261.349	-5
261.565	-12.07
261.782	104.5
261.999	-36.8
262.216	19.72
262.433	-6.77
262.65	-13.84
262.867	12.66
263.084	-5
263.301	-8.54
263.518	102.73
263.734	53.28
263.951	5.59
264.168	-20.9
264.385	5.59
264.602	26.79
264.818	-22.67
265.035	-5
265.252	-6.77
265.469	5.59
265.685	76.24
265.902	104.5
266.119	21.49
266.336	0.29
266.552	55.05
266.769	51.51
266.986	9.13
267.202	56.81
267.419	28.55
267.635	-29.73
267.852	32.09
268.069	-27.96
268.285	-80.95
268.502	-20.9
268.718	104.5
268.935	2.06
269.151	-38.56
269.368	12.66
269.584	-35.03
269.801	2.06
270.017	35.62
270.234	62.11
270.45	93.9
270.666	-6.77
270.883	-63.29
271.099	-27.96
271.316	-22.67
271.532	25.02
271.748	-17.37
271.965	28.55
272.181	3.83
272.397	37.38
272.614	9.13
272.83	-43.86
273.046	67.41
273.263	-5
273.479	-13.84
273.695	-13.84
273.911	-5
274.127	-8.54
274.344	39.15
274.56	21.49
274.776	106.27
274.992	63.88
275.208	-1.47
275.424	90.37
275.641	49.75
275.857	46.22
276.073	0.29
276.289	-47.39
276.505	16.19
276.721	35.62
276.937	62.11
277.153	35.62
277.369	-24.43
277.585	25.02
277.801	99.2
278.017	12.66
278.233	-13.84
278.449	-33.26
278.665	-8.54
278.881	28.55
279.097	93.9
279.313	-10.3
279.528	-42.09
279.744	51.51
279.96	7.36
280.176	28.55
280.392	19.72
280.608	60.35
280.823	56.81
281.039	-3.24
281.255	-6.77
281.471	118.63
281.687	-5
281.902	17.96
282.118	-19.13
282.334	67.41
282.549	-8.54
282.765	-10.3
282.981	-5
283.196	-31.5
283.412	-29.73
283.628	-57.99
283.843	12.66
284.059	46.22
284.274	-1.47
284.49	62.11
284.706	65.64
284.921	-57.99
285.137	2.06
285.352	2.06
285.568	26.79
285.783	95.67
285.999	-47.39
286.214	113.33
286.43	21.49
286.645	72.71
286.861	65.64
287.076	28.55
287.291	60.35
287.507	92.14
287.722	21.49
287.938	74.47
288.153	-24.43
288.368	37.38
288.584	3.83
288.799	46.22
289.014	-22.67
289.229	33.85
289.445	0.29
289.66	-57.99
289.875	44.45
290.09	33.85
290.306	-1.47
290.521	-6.77
290.736	-57.99
290.951	14.42
291.166	23.26
291.382	111.57
291.597	-52.69
291.812	-50.93
292.027	-35.03
292.242	-73.89
292.457	19.72
292.672	69.18
292.887	9.13
293.102	17.96
293.317	55.05
293.532	33.85
293.747	9.13
293.962	67.41
294.177	2.06
294.392	19.72
294.607	86.84
294.822	42.68
295.037	111.57
295.252	39.15
295.467	69.18
295.682	49.75
295.897	81.54
296.112	125.69
296.326	129.23
296.541	72.71
296.756	49.75
296.971	-36.8
297.186	47.98
297.4	-13.84
297.615	7.36
297.83	67.41
298.045	-15.6
298.259	30.32
298.474	-42.09
298.689	46.22
298.903	16.19
299.118	-5
299.333	0.29
299.547	-10.3
299.762	-1.47
299.977	49.75
300.191	28.55
300.406	99.2
300.62	19.72
300.835	-22.67
301.05	88.6
301.264	-35.03
301.479	-20.9
301.693	30.32
301.908	-47.39
302.122	-1.47
302.337	28.55
302.551	-102.15
302.766	-13.84
302.98	95.67
303.194	-19.13
303.409	25.02
303.623	69.18
303.838	10.89
304.052	-19.13
304.266	14.42
304.481	51.51
304.695	5.59
304.909	44.45
305.124	0.29
305.338	78.01
305.552	28.55
305.766	9.13
305.981	78.01
306.195	85.07
306.409	7.36
306.623	109.8
306.837	28.55
307.052	39.15
307.266	63.88
307.48	106.27
307.694	122.16
307.908	21.49
308.122	2.06
308.336	116.86
308.55	78.01
308.764	-27.96
308.979	-13.84
309.193	21.49
309.407	93.9
309.621	-10.3
309.835	74.47
310.049	85.07
310.263	130.99
310.477	152.19
310.69	69.18
310.904	153.95
311.118	109.8
311.332	164.55
311.546	26.79
311.76	58.58
311.974	171.62
312.188	238.73
312.402	275.82
312.615	358.83
312.829	321.74
313.043	205.17
313.257	231.67
313.471	166.32
313.684	277.59
313.898	323.51
314.112	491.3
314.325	637.89
314.539	885.16
314.753	1127.13
314.967	1234.87
315.18	1051.19
315.394	664.39
315.607	357.07
315.821	210.47
316.035	171.62
316.248	175.15
316.462	127.46
316.675	26.79
316.889	90.37
317.103	39.15
317.316	9.13
317.53	-17.37
317.743	55.05
317.957	76.24
318.17	12.66
318.384	81.54
318.597	90.37
318.81	33.85
319.024	97.44
319.237	-19.13
319.451	40.92
319.664	122.16
319.877	115.1
320.091	44.45
320.304	-31.5
320.517	47.98
320.731	25.02
320.944	25.02
321.157	63.88
321.371	44.45
321.584	33.85
321.797	44.45
322.01	16.19
322.223	3.83
322.437	46.22
322.65	86.84
322.863	-3.24
323.076	102.73
323.289	-1.47
323.502	19.72
323.716	60.35
323.929	108.03
324.142	125.69
324.355	100.97
324.568	132.76
324.781	93.9
324.994	120.4
325.207	115.1
325.42	134.53
325.633	90.37
325.846	99.2
326.059	106.27
326.272	130.99
326.485	152.19
326.698	146.89
326.911	194.58
327.124	311.15
327.336	295.25
327.549	365.9
327.762	231.67
327.975	157.49
328.188	251.1
328.401	153.95
328.613	192.81
328.826	146.89
329.039	219.3
329.252	249.33
329.465	249.33
329.677	272.29
329.89	348.24
330.103	321.74
330.315	297.02
330.528	335.87
330.741	351.77
330.953	286.42
331.166	277.59
331.379	339.41
331.591	486
331.804	531.92
332.017	648.49
332.229	759.76
332.442	833.94
332.654	1097.11
332.867	1155.39
333.079	1234.87
333.292	1319.65
333.504	1473.31
333.717	1766.5
333.929	2195.69
334.142	2835.05
334.354	3993.68
334.566	5728.09
334.779	8244.93
334.991	11736.72
335.204	15295.62
335.416	19573.37
335.628	24297.96
335.841	31784.9
336.053	38383.44
336.265	35871.9
336.478	25799.24
336.69	17846.02
336.902	11865.65
337.114	7224.07
337.327	3986.62
337.539	2315.79
337.751	1575.75
337.963	1210.14
338.176	959.34
338.388	819.81
338.6	754.46
338.812	501.9
339.024	604.34
339.236	344.7
339.448	335.87
339.66	365.9
339.873	410.05
340.085	390.63
340.297	323.51
340.509	281.12
340.721	277.59
340.933	346.47
341.145	311.15
341.357	259.93
341.569	224.6
341.781	251.1
341.993	286.42
342.204	236.97
342.416	221.07
342.628	274.06
342.84	189.28
343.052	210.47
343.264	228.13
343.476	240.5
343.688	270.52
343.899	295.25
344.111	242.26
344.323	307.61
344.535	268.76
344.746	516.03
344.958	549.58
345.17	516.03
345.382	549.58
345.593	459.51
345.805	516.03
346.017	383.56
346.228	473.64
346.44	341.17
346.652	335.87
346.863	448.91
347.075	374.73
347.286	420.65
347.498	448.91
347.71	715.61
347.921	765.06
348.133	1074.15
348.344	1309.05
348.556	1415.02
348.767	1868.94
348.979	2218.65
349.19	2232.78
349.402	1847.74
349.613	1685.25
349.825	1616.37
350.036	1498.04
350.247	1554.55
350.459	1581.05
350.67	2149.76
350.881	2697.29
351.093	3380.81
351.304	4500.58
351.515	6155.52
351.727	7909.36
351.938	10249.58
352.149	13082.57
352.361	16909.93
352.572	20113.83
352.783	18759.15
352.994	14198.81
353.205	11203.33
353.417	9398.27
353.628	8036.52
353.839	7026.25
354.05	5925.91
354.261	5929.44
354.472	6535.25
354.683	7964.11
354.895	9921.06
355.106	13061.37
355.317	17256.11
355.528	22424.02
355.739	28482.1
355.95	35440.94
356.161	44107.71
356.372	54708.46
356.583	60665.87
356.794	59014.47
357.005	46075.26
357.216	33452.2
357.427	24403.94
357.638	16217.58
357.848	9721.48
358.059	5558.54
358.27	3175.93
358.481	2045.56
358.692	1542.19
358.903	1137.73
359.114	977.01
359.324	743.87
359.535	648.49
359.746	643.19
359.957	607.87
360.167	505.43
360.378	484.23
360.589	450.68
360.8	342.94
361.01	357.07
361.221	425.95
361.432	288.19
361.642	358.83
361.853	351.77
362.063	372.96
362.274	406.52
362.485	422.42
362.695	355.3
362.906	471.87
363.116	390.63
363.327	468.34
363.537	425.95
363.748	487.77
363.958	584.91
364.169	558.41
364.379	463.04
364.59	597.27
364.8	766.83
365.011	772.13
365.221	925.79
365.431	1051.19
365.642	1157.16
365.852	1365.57
366.063	1487.44
366.273	1409.73
366.483	1139.5
366.694	994.67
366.904	773.89
367.114	796.85
367.324	538.99
367.535	540.75
367.745	637.89
367.955	676.75
368.165	849.84
368.375	1007.03
368.586	1471.54
368.796	2052.62
369.006	2375.84
369.216	3006.37
369.426	3675.76
369.636	4677.2
369.846	5583.27
370.057	6072.5
370.267	5046.34
370.477	3592.75
370.687	2858.01
370.897	2222.18
371.107	1884.83
371.317	1536.89
371.527	1418.56
371.737	1429.15
371.947	1669.36
372.157	1920.16
372.367	2425.29
372.576	3167.1
372.786	3772.91
372.996	4776.11
373.206	6176.71
373.416	7609.1
373.626	9778
373.836	11819.73
374.045	14419.58
374.255	18202.79
374.465	20481.2
374.675	17888.41
374.885	12988.96
375.094	9587.25
375.304	7098.67
375.514	5129.35
375.724	3557.43
375.933	2471.21
376.143	1791.23
376.353	1669.36
376.562	1830.08
376.772	1884.83
376.981	2245.14
377.191	2909.23
377.401	3553.9
377.61	4595.96
377.82	5579.73
378.029	7296.48
378.239	9076.82
378.448	11378.18
378.658	13753.73
378.867	16879.91
379.077	21362.53
379.286	26307.9
379.496	27141.55
379.705	21136.46
379.915	15210.84
380.124	11348.16
380.333	8218.44
380.543	5636.25
380.752	3647.51
380.962	2296.36
381.171	1406.19
381.38	1021.16
381.589	694.41
381.799	586.67
382.008	473.64
382.217	632.6
382.427	507.19
382.636	586.67
382.845	477.17
383.054	611.4
383.263	648.49
383.473	687.35
383.682	717.37
383.891	733.27
384.1	807.45
384.309	980.54
384.518	968.17
384.727	1139.5
384.936	1118.3
385.146	1024.69
385.355	1114.77
385.564	1169.52
385.773	1314.35
385.982	1455.65
386.191	1706.45
386.4	1934.29
386.609	2156.83
386.818	2451.79
387.027	2840.35
387.235	3354.32
387.444	3947.76
387.653	4341.62
387.862	4797.3
388.071	5673.34
388.28	6752.49
388.489	7967.64
388.698	9041.49
388.906	10219.55
389.115	11862.12
389.324	12905.95
389.533	13757.26
389.741	14686.28
389.95	17445.09
390.159	23427.22
390.368	28639.29
390.576	25122.78
390.785	17985.55
390.994	13790.82
391.202	10869.51
391.411	8168.99
391.62	5906.48
391.828	4509.41
392.037	3596.29
392.245	2912.76
392.454	2925.13
392.662	3207.72
392.871	3705.79
393.08	4309.83
393.288	4182.67
393.497	3296.03
393.705	2543.63
393.913	2004.94
394.122	1639.33
394.33	1377.93
394.539	1026.46
394.747	823.35
394.956	599.04
395.164	590.21
395.372	586.67
395.581	614.93
395.789	694.41
395.997	821.58
396.206	980.54
396.414	1088.28
396.622	1332.01
396.831	1649.93
397.039	2031.43
397.247	2471.21
397.455	2974.58
397.663	3672.23
397.872	4173.83
398.08	5071.07
398.288	6293.28
398.496	8089.51
398.704	8585.81
398.912	7473.1
399.121	5696.3
399.329	4431.7
399.537	3405.54
399.745	2578.95
399.953	1845.98
400.161	1385
400.369	1017.63
400.577	618.47
400.785	473.64
400.993	448.91
401.201	473.64
401.409	498.36
401.617	546.05
401.825	597.27
402.033	673.22
402.24	802.15
402.448	959.34
402.656	1173.05
402.864	1475.07
403.072	1717.04
403.28	2093.25
403.487	2548.93
403.695	2956.92
403.903	3502.68
404.111	4013.11
404.319	4970.39
404.526	6109.59
404.734	7098.67
404.942	6971.5
405.149	5235.32
405.357	3997.21
405.565	3280.14
405.772	2404.1
405.98	1853.04
406.188	1342.61
406.395	998.2
406.603	735.04
406.81	473.64
407.018	420.65
407.226	413.59
407.433	328.81
407.641	346.47
407.848	477.17
408.056	535.45
408.263	468.34
408.471	433.01
408.678	381.79
408.885	274.06
409.093	196.34
409.3	261.69
409.508	166.32
409.715	282.89
409.922	189.28
410.13	235.2
410.337	293.48
410.544	256.39
410.752	251.1
410.959	365.9
411.166	258.16
411.373	309.38
411.581	424.18
411.788	468.34
411.995	510.73
412.202	553.12
412.41	606.1
412.617	696.18
412.824	823.35
413.031	932.85
413.238	841.01
413.445	602.57
413.652	666.15
413.859	514.26
414.067	406.52
414.274	381.79
414.481	346.47
414.688	346.47
414.895	263.46
415.102	270.52
415.309	304.08
415.516	286.42
415.723	297.02
415.929	286.42
416.136	289.95
416.343	282.89
416.55	425.95
416.757	392.39
416.964	440.08
417.171	657.32
417.378	664.39
417.584	848.07
417.791	878.1
417.998	1130.66
418.205	1162.46
418.412	1335.54
418.618	1512.17
418.825	1911.33
419.032	2098.54
419.239	1817.72
419.445	1430.92
419.652	1247.23
419.859	987.6
420.065	918.72
420.272	809.22
420.478	722.67
420.685	581.38
420.892	627.3
421.098	706.78
421.305	701.48
421.511	738.57
421.718	915.19
421.924	899.29
422.131	964.64
422.337	1240.17
422.544	1496.27
422.75	1415.02
422.957	1473.31
423.163	1326.71
423.37	1446.82
423.576	1489.2
423.782	1649.93
423.989	1814.19
424.195	2022.6
424.401	2418.23
424.608	2905.7
424.814	3333.12
425.02	3781.74
425.227	4263.91
425.433	5118.75
425.639	5796.98
425.845	6236.76
426.052	6199.67
426.258	6035.41
426.464	6886.72
426.67	8659.99
426.876	8278.49
427.083	6508.76
427.289	5051.64
427.495	3990.15
427.701	3128.24
427.907	2404.1
428.113	1770.03
428.319	1388.53
428.525	1029.99
428.731	701.48
428.937	501.9
429.143	341.17
429.349	305.85
429.555	238.73
429.761	191.04
429.967	399.46
430.173	297.02
430.379	279.35
430.585	302.32
430.791	339.41
430.997	358.83
431.203	406.52
431.408	425.95
431.614	546.05
431.82	607.87
432.026	648.49
432.232	828.64
432.437	943.45
432.643	936.38
432.849	1296.69
433.055	1591.64
433.26	1745.3
433.466	1775.33
433.672	1436.22
433.877	1185.42
434.083	1010.56
434.289	844.54
434.494	826.88
434.7	706.78
434.906	729.74
435.111	477.17
435.317	372.96
435.522	321.74
435.728	279.35
435.933	251.1
436.139	143.36
436.344	136.29
436.55	122.16
436.755	69.18
436.961	143.36
437.166	60.35
437.372	141.59
437.577	141.59
437.782	164.55
437.988	106.27
438.193	83.31
438.398	85.07
438.604	187.51
438.809	169.85
439.014	191.04
439.22	196.34
439.425	169.85
439.63	263.46
439.835	282.89
440.041	346.47
440.246	401.22
440.451	427.72
440.656	289.95
440.861	311.15
441.067	332.34
441.272	249.33
441.477	210.47
441.682	212.24
441.887	106.27
442.092	88.6
442.297	134.53
442.502	146.89
442.707	42.68
442.912	109.8
443.117	51.51
443.322	70.94
443.527	111.57
443.732	88.6
443.937	161.02
444.142	152.19
444.347	113.33
444.552	168.08
444.757	150.42
444.962	86.84
445.166	153.95
445.371	198.11
445.576	157.49
445.781	187.51
445.986	226.37
446.191	224.6
446.395	293.48
446.6	300.55
446.805	330.57
447.01	402.99
447.214	404.76
447.419	489.53
447.624	616.7
447.828	577.84
448.033	498.36
448.238	544.29
448.442	487.77
448.647	399.46
448.851	312.91
449.056	224.6
449.261	261.69
449.465	187.51
449.67	168.08
449.874	116.86
450.079	146.89
450.283	88.6
450.488	118.63
450.692	143.36
450.896	168.08
451.101	100.97
451.305	125.69
451.51	2.06
451.714	99.2
451.918	72.71
452.123	180.45
452.327	115.1
452.531	35.62
452.736	180.45
452.94	14.42
453.144	196.34
453.349	74.47
453.553	92.14
453.757	214.01
453.961	141.59
454.166	266.99
454.37	327.04
454.574	265.22
454.778	392.39
454.982	385.33
455.186	440.08
455.39	455.98
455.595	517.79
455.799	567.25
456.003	786.26
456.207	851.6
456.411	779.19
456.615	593.74
456.819	554.88
457.023	406.52
457.227	380.03
457.431	357.07
457.635	240.5
457.839	224.6
458.043	217.54
458.246	143.36
458.45	157.49
458.654	198.11
458.858	168.08
459.062	249.33
459.266	166.32
459.47	183.98
459.673	92.14
459.877	104.5
460.081	63.88
460.285	161.02
460.488	85.07
460.692	120.4
460.896	132.76
461.1	166.32
461.303	62.11
461.507	148.66
461.711	183.98
461.914	153.95
462.118	108.03
462.321	189.28
462.525	229.9
462.729	279.35
462.932	291.72
463.136	346.47
463.339	362.37
463.543	358.83
463.746	411.82
463.95	523.09
464.153	561.95
464.357	569.01
464.56	577.84
464.764	516.03
464.967	438.31
465.17	436.55
465.374	563.71
465.577	574.31
465.78	452.44
465.984	466.57
466.187	327.04
466.39	387.09
466.594	371.2
466.797	325.28
467	399.46
467.203	346.47
467.407	404.76
467.61	475.4
467.813	579.61
468.016	425.95
468.219	583.14
468.423	597.27
468.626	646.73
468.829	742.1
469.032	678.52
469.235	708.54
469.438	856.9
469.641	1263.13
469.844	1462.71
470.047	1360.27
470.25	1123.6
470.453	989.37
470.656	754.46
470.859	742.1
471.062	644.96
471.265	632.6
471.468	498.36
471.671	348.24
471.874	279.35
472.077	289.95
472.28	90.37
472.483	83.31
472.685	56.81
472.888	122.16
473.091	92.14
473.294	58.58
473.497	72.71
473.699	35.62
473.902	88.6
474.105	63.88
474.308	46.22
474.51	113.33
474.713	28.55
474.916	69.18
475.118	109.8
475.321	-8.54
475.524	67.41
475.726	53.28
475.929	9.13
476.131	90.37
476.334	33.85
476.536	44.45
476.739	150.42
476.942	67.41
477.144	111.57
477.347	93.9
477.549	7.36
477.751	109.8
477.954	97.44
478.156	12.66
478.359	113.33
478.561	208.71
478.764	157.49
478.966	122.16
479.168	69.18
479.371	159.25
479.573	136.29
479.775	191.04
479.978	300.55
480.18	351.77
480.382	263.46
480.584	236.97
480.787	222.84
480.989	153.95
481.191	129.23
481.393	67.41
481.595	65.64
481.797	83.31
482	51.51
482.202	109.8
482.404	44.45
482.606	113.33
482.808	100.97
483.01	152.19
483.212	129.23
483.414	116.86
483.616	88.6
483.818	49.75
484.02	47.98
484.222	120.4
484.424	161.02
484.626	51.51
484.828	109.8
485.03	104.5
485.232	102.73
485.434	65.64
485.636	148.66
485.837	111.57
486.039	143.36
486.241	143.36
486.443	120.4
486.645	99.2
486.847	115.1
487.048	194.58
487.25	155.72
487.452	240.5
487.653	130.99
487.855	113.33
488.057	153.95
488.259	208.71
488.46	208.71
488.662	263.46
488.863	198.11
489.065	136.29
489.267	221.07
489.468	245.8
489.67	240.5
489.871	261.69
490.073	282.89
490.274	279.35
490.476	358.83
490.677	512.49
490.879	325.28
491.08	342.94
491.282	245.8
491.483	263.46
491.685	196.34
491.886	244.03
492.087	182.21
492.289	168.08
492.49	198.11
492.691	153.95
492.893	178.68
493.094	157.49
493.295	100.97
493.497	99.2
493.698	104.5
493.899	113.33
494.1	152.19
494.302	152.19
494.503	120.4
494.704	108.03
494.905	113.33
495.106	129.23
495.307	58.58
495.509	152.19
495.71	53.28
495.911	130.99
496.112	88.6
496.313	95.67
496.514	86.84
496.715	139.82
496.916	256.39
497.117	132.76
497.318	65.64
497.519	81.54
497.72	37.38
497.921	109.8
498.122	100.97
498.323	173.38
498.524	122.16
498.724	130.99
498.925	104.5
499.126	134.53
499.327	129.23
499.528	236.97
499.729	153.95
499.929	122.16
500.13	127.46
500.331	106.27
500.532	161.02
500.732	153.95
500.933	169.85
501.134	229.9
501.334	191.04
501.535	221.07
501.736	143.36
501.936	247.56
502.137	178.68
502.338	240.5
502.538	240.5
502.739	198.11
502.939	176.91
503.14	169.85
503.34	159.25
503.541	258.16
503.741	191.04
503.942	187.51
504.142	134.53
504.343	125.69
504.543	23.26
504.744	162.79
504.944	143.36
505.144	162.79
505.345	175.15
505.545	229.9
505.745	219.3
505.946	229.9
506.146	233.43
506.346	111.57
506.547	175.15
506.747	194.58
506.947	182.21
507.147	293.48
507.347	217.54
507.548	281.12
507.748	157.49
507.948	249.33
508.148	182.21
508.348	97.44
508.548	37.38
508.749	92.14
508.949	141.59
509.149	47.98
509.349	72.71
509.549	130.99
509.749	120.4
509.949	78.01
510.149	118.63
510.349	74.47
510.549	108.03
510.749	120.4
510.949	102.73
511.149	136.29
511.349	118.63
511.548	123.93
511.748	67.41
511.948	203.41
512.148	113.33
512.348	143.36
512.548	351.77
512.747	164.55
512.947	125.69
513.147	176.91
513.347	212.24
513.546	185.75
513.746	215.77
513.946	284.65
514.146	205.17
514.345	145.12
514.545	201.64
514.745	214.01
514.944	138.06
515.144	92.14
515.343	196.34
515.543	245.8
515.743	191.04
515.942	224.6
516.142	183.98
516.341	217.54
516.541	178.68
516.74	226.37
516.94	245.8
517.139	201.64
517.338	249.33
517.538	233.43
517.737	229.9
517.937	214.01
518.136	256.39
518.335	166.32
518.535	152.19
518.734	182.21
518.933	212.24
519.133	166.32
519.332	309.38
519.531	228.13
519.731	171.62
519.93	258.16
520.129	245.8
520.328	323.51
520.527	261.69
520.727	233.43
520.926	270.52
521.125	252.86
521.324	238.73
521.523	410.05
521.722	519.56
521.921	466.57
522.12	394.16
522.319	380.03
522.518	321.74
522.717	168.08
522.916	169.85
523.115	115.1
523.314	79.77
523.513	175.15
523.712	97.44
523.911	88.6
524.11	141.59
524.309	109.8
524.508	100.97
524.707	100.97
524.906	122.16
525.104	21.49
525.303	93.9
525.502	113.33
525.701	141.59
525.9	173.38
526.098	187.51
526.297	120.4
526.496	49.75
526.695	88.6
526.893	122.16
527.092	111.57
527.291	141.59
527.489	120.4
527.688	164.55
527.886	92.14
528.085	136.29
528.284	120.4
528.482	113.33
528.681	244.03
528.879	169.85
529.078	258.16
529.276	148.66
529.475	145.12
529.673	168.08
529.872	236.97
530.07	217.54
530.269	205.17
530.467	242.26
530.665	217.54
530.864	136.29
531.062	203.41
531.261	166.32
531.459	162.79
531.657	178.68
531.855	194.58
532.054	150.42
532.252	231.67
532.45	201.64
532.649	152.19
532.847	111.57
533.045	183.98
533.243	104.5
533.441	108.03
533.639	93.9
533.838	100.97
534.036	46.22
534.234	58.58
534.432	109.8
534.63	78.01
534.828	-13.84
535.026	69.18
535.224	138.06
535.422	115.1
535.62	123.93
535.818	109.8
536.016	93.9
536.214	55.05
536.412	109.8
536.61	129.23
536.808	189.28
537.006	162.79
537.204	168.08
537.401	157.49
537.599	222.84
537.797	157.49
537.995	159.25
538.193	185.75
538.391	134.53
538.588	210.47
538.786	191.04
538.984	143.36
539.182	138.06
539.379	251.1
539.577	249.33
539.775	180.45
539.972	187.51
540.17	161.02
540.368	238.73
540.565	279.35
540.763	323.51
540.96	408.29
541.158	401.22
541.355	510.73
541.553	588.44
541.75	510.73
541.948	510.73
542.145	538.99
542.343	643.19
542.54	537.22
542.738	561.95
542.935	667.92
543.133	583.14
543.33	583.14
543.527	477.17
543.725	567.25
543.922	507.19
544.119	478.94
544.317	521.32
544.514	404.76
544.711	491.3
544.908	577.84
545.106	683.82
545.303	599.04
545.5	533.69
545.697	524.86
545.895	524.86
546.092	440.08
546.289	457.74
546.486	380.03
546.683	441.85
546.88	399.46
547.077	289.95
547.274	291.72
547.471	291.72
547.668	203.41
547.865	189.28
548.063	191.04
548.259	279.35
548.456	236.97
548.653	235.2
548.85	221.07
549.047	215.77
549.244	266.99
549.441	277.59
549.638	222.84
549.835	244.03
550.032	136.29
550.229	214.01
550.425	233.43
550.622	256.39
550.819	256.39
551.016	148.66
551.212	194.58
551.409	99.2
551.606	169.85
551.803	99.2
551.999	247.56
552.196	136.29
552.393	159.25
552.589	116.86
552.786	222.84
552.983	145.12
553.179	63.88
553.376	168.08
553.572	115.1
553.769	153.95
553.965	90.37
554.162	74.47
554.358	69.18
554.555	28.55
554.751	178.68
554.948	153.95
555.144	90.37
555.341	161.02
555.537	127.46
555.733	173.38
555.93	182.21
556.126	171.62
556.322	118.63
556.519	88.6
556.715	79.77
556.911	150.42
557.108	106.27
557.304	146.89
557.5	136.29
557.696	180.45
557.893	134.53
558.089	233.43
558.285	153.95
558.481	155.72
558.677	259.93
558.873	70.94
559.07	155.72
559.266	125.69
559.462	21.49
559.658	30.32
559.854	-6.77
560.05	81.54
560.246	76.24
560.442	81.54
560.638	74.47
560.834	159.25
561.03	40.92
561.226	58.58
561.422	115.1
561.618	65.64
561.813	76.24
562.009	79.77
562.205	0.29
562.401	81.54
562.597	25.02
562.793	55.05
562.988	-56.22
563.184	120.4
563.38	47.98
563.576	40.92
563.772	69.18
563.967	53.28
564.163	56.81
564.359	65.64
564.554	129.23
564.75	-19.13
564.946	19.72
565.141	-31.5
565.337	32.09
565.532	21.49
565.728	99.2
565.923	23.26
566.119	-26.2
566.315	26.79
566.51	116.86
566.706	88.6
566.901	-6.77
567.096	28.55
567.292	-12.07
567.487	65.64
567.683	76.24
567.878	21.49
568.074	56.81
568.269	145.12
568.464	21.49
568.66	79.77
568.855	35.62
569.05	109.8
569.245	2.06
569.441	49.75
569.636	106.27
569.831	21.49
570.026	16.19
570.222	28.55
570.417	116.86
570.612	78.01
570.807	42.68
571.002	70.94
571.197	78.01
571.393	185.75
571.588	70.94
571.783	130.99
571.978	120.4
572.173	159.25
572.368	130.99
572.563	194.58
572.758	139.82
572.953	166.32
573.148	143.36
573.343	129.23
573.538	182.21
573.733	266.99
573.927	284.65
574.122	145.12
574.317	244.03
574.512	302.32
574.707	291.72
574.902	272.29
575.096	238.73
575.291	242.26
575.486	231.67
575.681	300.55
575.876	224.6
576.07	199.88
576.265	251.1
576.46	242.26
576.654	189.28
576.849	277.59
577.044	279.35
577.238	302.32
577.433	304.08
577.627	221.07
577.822	335.87
578.017	312.91
578.211	281.12
578.406	265.22
578.6	307.61
578.795	291.72
578.989	325.28
579.184	302.32
579.378	401.22
579.572	408.29
579.767	364.13
579.961	279.35
580.156	312.91
580.35	376.5
580.544	210.47
580.739	284.65
580.933	305.85
581.127	304.08
581.322	212.24
581.516	323.51
581.71	328.81
581.904	325.28
582.099	335.87
582.293	321.74
582.487	355.3
582.681	330.57
582.875	374.73
583.069	411.82
583.263	433.01
583.458	350
583.652	327.04
583.846	424.18
584.04	335.87
584.234	314.68
584.428	348.24
584.622	254.63
584.816	229.9
585.01	281.12
585.204	309.38
585.398	233.43
585.592	364.13
585.786	277.59
585.979	270.52
586.173	210.47
586.367	293.48
586.561	203.41
586.755	244.03
586.949	314.68
587.142	327.04
587.336	337.64
587.53	362.37
587.724	312.91
587.917	351.77
588.111	265.22
588.305	224.6
588.499	318.21
588.692	236.97
588.886	362.37
589.08	203.41
589.273	242.26
589.467	282.89
589.66	242.26
589.854	300.55
590.047	221.07
590.241	201.64
590.434	138.06
590.628	240.5
590.821	178.68
591.015	244.03
591.208	245.8
591.402	221.07
591.595	201.64
591.789	261.69
591.982	175.15
592.175	153.95
592.369	191.04
592.562	185.75
592.755	198.11
592.949	146.89
593.142	214.01
593.335	240.5
593.529	155.72
593.722	194.58
593.915	178.68
594.108	183.98
594.301	173.38
594.495	219.3
594.688	266.99
594.881	180.45
595.074	183.98
595.267	224.6
595.46	212.24
595.653	175.15
595.846	161.02
596.039	141.59
596.232	79.77
596.425	180.45
596.618	175.15
596.811	206.94
597.004	169.85
597.197	191.04
597.39	168.08
597.583	189.28
597.776	205.17
597.969	226.37
598.162	215.77
598.355	118.63
598.548	266.99
598.74	229.9
598.933	134.53
599.126	245.8
599.319	266.99
599.511	259.93
599.704	291.72
599.897	304.08
600.09	266.99
600.282	224.6
600.475	291.72
600.668	222.84
600.86	275.82
601.053	224.6
601.245	199.88
601.438	148.66
601.631	79.77
601.823	120.4
602.016	182.21
602.208	162.79
602.401	109.8
602.593	183.98
602.786	219.3
602.978	118.63
603.171	191.04
603.363	203.41
603.555	194.58
603.748	205.17
603.94	228.13
604.133	212.24
604.325	132.76
604.517	157.49
604.71	159.25
604.902	215.77
605.094	162.79
605.286	291.72
605.479	240.5
605.671	266.99
605.863	178.68
606.055	229.9
606.247	261.69
606.44	236.97
606.632	221.07
606.824	240.5
607.016	274.06
607.208	279.35
607.4	217.54
607.592	155.72
607.784	194.58
607.976	146.89
608.168	115.1
608.36	136.29
608.552	261.69
608.744	153.95
608.936	136.29
609.128	88.6
609.32	152.19
609.512	169.85
609.704	228.13
609.896	346.47
610.087	401.22
610.279	475.4
610.471	537.22
610.663	494.83
610.855	537.22
611.046	599.04
611.238	505.43
611.43	459.51
611.622	508.96
611.813	445.38
612.005	380.03
612.197	372.96
612.388	328.81
612.58	311.15
612.772	311.15
612.963	270.52
613.155	316.44
613.346	242.26
613.538	236.97
613.729	180.45
613.921	162.79
614.112	185.75
614.304	134.53
614.495	203.41
614.687	231.67
614.878	176.91
615.07	173.38
615.261	247.56
615.452	108.03
615.644	266.99
615.835	205.17
616.026	157.49
616.218	127.46
616.409	113.33
616.6	206.94
616.792	155.72
616.983	120.4
617.174	134.53
617.365	106.27
617.557	138.06
617.748	106.27
617.939	173.38
618.13	39.15
618.321	92.14
618.512	143.36
618.703	120.4
618.894	72.71
619.086	153.95
619.277	60.35
619.468	92.14
619.659	109.8
619.85	145.12
620.041	62.11
620.232	69.18
620.423	141.59
620.613	111.57
620.804	118.63
620.995	175.15
621.186	76.24
621.377	180.45
621.568	90.37
621.759	150.42
621.95	189.28
622.14	235.2
622.331	153.95
622.522	153.95
622.713	106.27
622.903	164.55
623.094	145.12
623.285	136.29
623.475	228.13
623.666	95.67
623.857	166.32
624.047	104.5
624.238	85.07
624.429	109.8
624.619	136.29
624.81	83.31
625	168.08
625.191	127.46
625.381	125.69
625.572	109.8
625.762	69.18
625.953	58.58
626.143	116.86
626.334	150.42
626.524	150.42
626.715	139.82
626.905	145.12
627.095	100.97
627.286	180.45
627.476	166.32
627.666	168.08
627.857	132.76
628.047	70.94
628.237	122.16
628.427	185.75
628.618	76.24
628.808	263.46
628.998	85.07
629.188	187.51
629.378	145.12
629.569	132.76
629.759	251.1
629.949	169.85
630.139	249.33
630.329	168.08
630.519	228.13
630.709	203.41
630.899	286.42
631.089	176.91
631.279	245.8
631.469	215.77
631.659	281.12
631.849	199.88
632.039	109.8
632.229	157.49
632.419	129.23
632.609	164.55
632.799	134.53
632.988	161.02
633.178	145.12
633.368	39.15
633.558	127.46
633.748	127.46
633.937	118.63
634.127	65.64
634.317	100.97
634.507	130.99
634.696	102.73
634.886	79.77
635.076	173.38
635.265	194.58
635.455	196.34
635.645	146.89
635.834	205.17
636.024	199.88
636.213	175.15
636.403	214.01
636.592	196.34
636.782	134.53
636.971	201.64
637.161	178.68
637.35	148.66
637.54	242.26
637.729	233.43
637.919	171.62
638.108	187.51
638.297	229.9
638.487	173.38
638.676	166.32
638.866	183.98
639.055	182.21
639.244	175.15
639.433	111.57
639.623	157.49
639.812	138.06
640.001	136.29
640.19	122.16
640.38	76.24
640.569	102.73
640.758	86.84
640.947	99.2
641.136	14.42
641.325	72.71
641.514	118.63
641.703	113.33
641.893	145.12
642.082	187.51
642.271	219.3
642.46	93.9
642.649	134.53
642.838	104.5
643.027	171.62
643.215	215.77
643.404	145.12
643.593	191.04
643.782	136.29
643.971	222.84
644.16	228.13
644.349	196.34
644.538	251.1
644.726	233.43
644.915	238.73
645.104	247.56
645.293	178.68
645.481	125.69
645.67	183.98
645.859	168.08
646.048	311.15
646.236	130.99
646.425	111.57
646.614	176.91
646.802	178.68
646.991	169.85
647.179	132.76
647.368	136.29
647.557	102.73
647.745	145.12
647.934	113.33
648.122	175.15
648.311	166.32
648.499	100.97
648.687	125.69
648.876	152.19
649.064	146.89
649.253	72.71
649.441	152.19
649.63	217.54
649.818	231.67
650.006	206.94
650.195	219.3
650.383	270.52
650.571	302.32
650.759	358.83
650.948	325.28
651.136	254.63
651.324	240.5
651.512	323.51
651.7	284.65
651.889	300.55
652.077	357.07
652.265	286.42
652.453	245.8
652.641	364.13
652.829	309.38
653.017	344.7
653.205	334.11
653.393	305.85
653.581	309.38
653.769	288.19
653.957	242.26
654.145	289.95
654.333	212.24
654.521	164.55
654.709	206.94
654.897	148.66
655.085	166.32
655.273	127.46
655.461	148.66
655.648	198.11
655.836	173.38
656.024	129.23
656.212	187.51
656.399	176.91
656.587	187.51
656.775	175.15
656.963	208.71
657.15	259.93
657.338	247.56
657.526	319.98
657.713	351.77
657.901	312.91
658.089	436.55
658.276	431.25
658.464	374.73
658.651	493.07
658.839	498.36
659.026	514.26
659.214	445.38
659.401	399.46
659.589	542.52
659.776	482.47
659.964	538.99
660.151	455.98
660.338	560.18
660.526	503.66
660.713	508.96
660.901	484.23
661.088	517.79
661.275	519.56
661.463	523.09
661.65	452.44
661.837	436.55
662.024	434.78
662.212	319.98
662.399	325.28
662.586	272.29
662.773	344.7
662.96	298.78
663.147	339.41
663.335	233.43
663.522	182.21
663.709	161.02
663.896	138.06
664.083	247.56
664.27	138.06
664.457	210.47
664.644	182.21
664.831	178.68
665.018	169.85
665.205	217.54
665.392	341.17
665.579	235.2
665.766	286.42
665.953	413.59
666.139	383.56
666.326	413.59
666.513	452.44
666.7	344.7
666.887	397.69
667.074	335.87
667.26	263.46
667.447	318.21
667.634	397.69
667.821	247.56
668.007	369.43
668.194	395.92
668.381	378.26
668.567	413.59
668.754	325.28
668.94	516.03
669.127	360.6
669.314	351.77
669.5	358.83
669.687	321.74
669.873	385.33
670.06	275.82
670.246	238.73
670.433	231.67
670.619	242.26
670.806	263.46
670.992	169.85
671.178	136.29
671.365	136.29
671.551	74.47
671.738	70.94
671.924	173.38
672.11	74.47
672.297	201.64
672.483	115.1
672.669	70.94
672.855	55.05
673.042	129.23
673.228	171.62
673.414	85.07
673.6	141.59
673.786	72.71
673.973	229.9
674.159	183.98
674.345	208.71
674.531	279.35
674.717	208.71
674.903	221.07
675.089	169.85
675.275	210.47
675.461	189.28
675.647	228.13
675.833	236.97
676.019	198.11
676.205	344.7
676.391	185.75
676.577	155.72
676.763	235.2
676.949	286.42
677.134	231.67
677.32	258.16
677.506	282.89
677.692	244.03
677.878	231.67
678.064	312.91
678.249	295.25
678.435	240.5
678.621	161.02
678.806	93.9
678.992	141.59
679.178	122.16
679.363	95.67
679.549	122.16
679.735	74.47
679.92	74.47
680.106	106.27
680.291	115.1
680.477	42.68
680.663	104.5
680.848	65.64
681.034	99.2
681.219	-6.77
681.404	0.29
681.59	51.51
681.775	67.41
681.961	60.35
682.146	123.93
682.332	145.12
682.517	14.42
682.702	157.49
682.888	100.97
683.073	76.24
683.258	136.29
683.443	92.14
683.629	116.86
683.814	113.33
683.999	111.57
684.184	152.19
684.37	78.01
684.555	108.03
684.74	106.27
684.925	104.5
685.11	90.37
685.295	205.17
685.48	60.35
685.665	208.71
685.85	86.84
686.035	51.51
686.22	127.46
686.405	189.28
686.59	79.77
686.775	99.2
686.96	56.81
687.145	127.46
687.33	40.92
687.515	60.35
687.7	3.83
687.885	102.73
688.07	113.33
688.254	69.18
688.439	118.63
688.624	51.51
688.809	-12.07
688.993	0.29
689.178	-33.26
689.363	-22.67
689.548	10.89
689.732	3.83
689.917	25.02
690.102	-13.84
690.286	30.32
690.471	16.19
690.655	12.66
690.84	-43.86
691.025	-13.84
691.209	-31.5
691.394	-13.84
691.578	-40.33
691.763	93.9
691.947	46.22
692.132	100.97
692.316	95.67
692.5	-24.43
692.685	-52.69
692.869	-12.07
693.054	0.29
693.238	12.66
693.422	2.06
693.607	58.58
693.791	70.94
693.975	-10.3
694.159	58.58
694.344	70.94
694.528	21.49
694.712	49.75
694.896	-40.33
695.081	60.35
695.265	39.15
695.449	-13.84
695.633	25.02
695.817	-42.09
696.001	-12.07
696.185	40.92
696.369	28.55
696.553	-57.99
696.737	106.27
696.921	21.49
697.105	100.97
697.289	60.35
697.473	40.92
697.657	95.67
697.841	35.62
698.025	-35.03
698.209	-8.54
698.393	-36.8
698.577	51.51
698.76	3.83
698.944	74.47
699.128	-12.07
699.312	2.06
699.496	81.54
699.679	5.59
699.863	30.32
700.047	3.83
700.23	17.96
700.414	62.11
700.598	-68.59
700.781	42.68
700.965	19.72
701.149	100.97
701.332	65.64
701.516	70.94
701.699	70.94
701.883	-33.26
702.066	78.01
702.25	17.96
702.433	-63.29
702.617	95.67
702.8	25.02
702.984	74.47
703.167	-50.93
703.35	113.33
703.534	12.66
703.717	72.71
703.901	83.31
704.084	97.44
704.267	3.83
704.45	9.13
704.634	0.29
704.817	58.58
705	111.57
705.183	-8.54
705.367	67.41
705.55	42.68
705.733	10.89
705.916	111.57
706.099	90.37
706.282	44.45
706.465	95.67
706.649	86.84
706.832	69.18
707.015	37.38
707.198	25.02
707.381	58.58
707.564	-38.56
707.747	30.32
707.93	99.2
708.113	104.5
708.295	14.42
708.478	72.71
708.661	14.42
708.844	70.94
709.027	79.77
709.21	28.55
709.393	113.33
709.575	63.88
709.758	-17.37
709.941	-31.5
710.124	28.55
710.306	56.81
710.489	53.28
710.672	58.58
710.854	115.1
711.037	-27.96
711.22	78.01
711.402	143.36
711.585	70.94
711.768	-13.84
711.95	25.02
712.133	32.09
712.315	88.6
712.498	74.47
712.68	70.94
712.863	40.92
713.045	40.92
713.228	69.18
713.41	-29.73
713.592	74.47
713.775	16.19
713.957	9.13
714.139	-43.86
714.322	9.13
714.504	40.92
714.686	10.89
714.869	-52.69
715.051	129.23
715.233	10.89
715.415	-72.12
715.598	-29.73
715.78	62.11
715.962	-20.9
716.144	23.26
716.326	-5
716.509	83.31
716.691	23.26
716.873	74.47
717.055	-88.02
717.237	155.72
717.419	-8.54
717.601	-73.89
717.783	-12.07
717.965	-19.13
718.147	-10.3
718.329	40.92
718.511	-5
718.693	10.89
718.875	35.62
719.056	16.19
719.238	-8.54
719.42	74.47
719.602	-26.2
719.784	17.96
719.966	21.49
720.147	44.45
720.329	16.19
720.511	85.07
720.692	90.37
720.874	56.81
721.056	46.22
721.238	81.54
721.419	-31.5
721.601	76.24
721.782	10.89
721.964	122.16
722.146	83.31
722.327	44.45
722.509	55.05
722.69	111.57
722.872	56.81
723.053	125.69
723.235	109.8
723.416	51.51
723.598	69.18
723.779	123.93
723.96	192.81
724.142	125.69
724.323	56.81
724.504	97.44
724.686	58.58
724.867	60.35
725.048	122.16
725.23	187.51
725.411	23.26
725.592	67.41
725.773	55.05
725.955	268.76
726.136	111.57
726.317	0.29
726.498	30.32
726.679	76.24
726.86	123.93
727.041	69.18
727.223	60.35
727.404	53.28
727.585	69.18
727.766	69.18
727.947	83.31
728.128	139.82
728.309	100.97
728.49	-5
728.671	9.13
728.851	65.64
729.032	2.06
729.213	-6.77
729.394	-27.96
729.575	78.01
729.756	10.89
729.937	39.15
730.117	67.41
730.298	28.55
730.479	102.73
730.66	97.44
730.84	108.03
731.021	51.51
731.202	95.67
731.382	111.57
731.563	69.18
731.744	145.12
731.924	123.93
732.105	97.44
732.286	37.38
732.466	100.97
732.647	58.58
732.827	118.63
733.008	97.44
733.188	173.38
733.369	53.28
733.549	95.67
733.73	100.97
733.91	150.42
734.09	108.03
734.271	192.81
734.451	161.02
734.631	138.06
734.812	173.38
734.992	155.72
735.172	88.6
735.353	206.94
735.533	235.2
735.713	196.34
735.893	194.58
736.074	104.5
736.254	120.4
736.434	85.07
736.614	185.75
736.794	115.1
736.974	157.49
737.154	106.27
737.335	201.64
737.515	145.12
737.695	35.62
737.875	205.17
738.055	78.01
738.235	97.44
738.415	115.1
738.595	120.4
738.775	85.07
738.954	49.75
739.134	47.98
739.314	70.94
739.494	173.38
739.674	138.06
739.854	14.42
740.034	30.32
740.213	106.27
740.393	16.19
740.573	2.06
740.753	32.09
740.932	32.09
741.112	-3.24
741.292	14.42
741.471	35.62
741.651	175.15
741.831	37.38
742.01	30.32
742.19	141.59
742.37	-17.37
742.549	47.98
742.729	28.55
742.908	102.73
743.088	99.2
743.267	90.37
743.447	58.58
743.626	152.19
743.805	104.5
743.985	148.66
744.164	178.68
744.344	201.64
744.523	203.41
744.702	129.23
744.882	176.91
745.061	113.33
745.24	192.81
745.42	178.68
745.599	229.9
745.778	265.22
745.957	215.77
746.137	205.17
746.316	198.11
746.495	185.75
746.674	139.82
746.853	224.6
747.032	212.24
747.211	191.04
747.39	134.53
747.569	157.49
747.749	224.6
747.928	187.51
748.107	120.4
748.286	236.97
748.464	183.98
748.643	132.76
748.822	206.94
749.001	176.91
749.18	189.28
749.359	258.16
749.538	164.55
749.717	162.79
749.896	134.53
750.074	72.71
750.253	143.36
750.432	134.53
750.611	28.55
750.789	70.94
750.968	32.09
751.147	78.01
751.325	127.46
751.504	102.73
751.683	85.07
751.861	65.64
752.04	-45.63
752.219	3.83
752.397	44.45
752.576	85.07
752.754	134.53
752.933	111.57
753.111	55.05
753.29	63.88
753.468	67.41
753.647	70.94
753.825	79.77
754.003	69.18
754.182	180.45
754.36	104.5
754.539	74.47
754.717	25.02
754.895	58.58
755.074	47.98
755.252	-8.54
755.43	196.34
755.608	90.37
755.787	109.8
755.965	146.89
756.143	122.16
756.321	132.76
756.499	164.55
756.677	143.36
756.856	221.07
757.034	141.59
757.212	196.34
757.39	145.12
757.568	240.5
757.746	173.38
757.924	194.58
758.102	228.13
758.28	157.49
758.458	152.19
758.636	203.41
758.814	185.75
758.992	314.68
759.169	152.19
759.347	235.2
759.525	266.99
759.703	194.58
759.881	175.15
760.059	185.75
760.236	272.29
760.414	221.07
760.592	83.31
760.77	192.81
760.947	194.58
761.125	136.29
761.303	240.5
761.48	161.02
761.658	258.16
761.835	153.95
762.013	109.8
762.191	85.07
762.368	111.57
762.546	108.03
762.723	47.98
762.901	90.37
763.078	95.67
763.256	118.63
763.433	32.09
763.611	153.95
763.788	16.19
763.965	9.13
764.143	62.11
764.32	23.26
764.497	86.84
764.675	70.94
764.852	85.07
765.029	65.64
765.207	95.67
765.384	53.28
765.561	49.75
765.738	99.2
765.915	74.47
766.093	58.58
766.27	90.37
766.447	49.75
766.624	92.14
766.801	132.76
766.978	99.2
767.155	175.15
767.332	102.73
767.509	159.25
767.686	164.55
767.863	176.91
768.04	210.47
768.217	125.69
768.394	203.41
768.571	226.37
768.748	201.64
768.925	266.99
769.102	199.88
769.279	291.72
769.455	173.38
769.632	355.3
769.809	288.19
769.986	350
770.163	311.15
770.339	206.94
770.516	328.81
770.693	259.93
770.869	372.96
771.046	360.6
771.223	350
771.399	327.04
771.576	369.43
771.752	376.5
771.929	328.81
772.106	305.85
772.282	353.54
772.459	339.41
772.635	357.07
772.812	351.77
772.988	328.81
773.165	325.28
773.341	222.84
773.517	288.19
773.694	298.78
773.87	295.25
774.046	258.16
774.223	355.3
774.399	161.02
774.575	212.24
774.752	129.23
774.928	157.49
775.104	166.32
775.28	122.16
775.457	215.77
775.633	42.68
775.809	35.62
775.985	153.95
776.161	130.99
776.337	115.1
776.513	113.33
776.69	78.01
776.866	2.06
777.042	30.32
777.218	-10.3
777.394	53.28
777.57	10.89
777.746	32.09
777.922	-95.08
778.097	-29.73
778.273	-29.73
778.449	-12.07
778.625	5.59
778.801	16.19
778.977	-12.07
779.153	-57.99
779.328	-42.09
779.504	51.51
779.68	-102.15
779.856	109.8
780.031	-54.46
780.207	32.09
780.383	21.49
780.559	44.45
780.734	-43.86
780.91	10.89
781.085	-12.07
781.261	42.68
781.437	-42.09
781.612	40.92
781.788	-8.54
781.963	-31.5
782.139	-73.89
782.314	63.88
782.49	33.85
782.665	-19.13
782.841	5.59
783.016	19.72
783.191	10.89
783.367	-22.67
783.542	10.89
783.717	-19.13
783.893	76.24
784.068	-1.47
784.243	65.64
784.419	-8.54
784.594	-17.37
784.769	-26.2
784.944	-29.73
785.12	-27.96
785.295	65.64
785.47	16.19
785.645	21.49
785.82	-54.46
785.995	95.67
786.17	21.49
786.345	32.09
786.52	-6.77
786.695	42.68
786.87	5.59
787.045	70.94
787.22	26.79
787.395	32.09
787.57	-35.03
787.745	26.79
787.92	32.09
788.095	-86.25
788.27	12.66
788.445	32.09
788.619	55.05
788.794	19.72
788.969	-61.52
789.144	-79.18
789.319	-40.33
789.493	-1.47
789.668	-1.47
789.843	42.68
790.017	83.31
790.192	7.36
790.367	9.13
790.541	-1.47
790.716	-45.63
790.89	-86.25
791.065	35.62
791.24	-66.82
791.414	-72.12
791.589	-72.12
791.763	-43.86
791.938	-27.96
792.112	-1.47
792.286	-36.8
792.461	-72.12
792.635	19.72
792.81	-27.96
792.984	-15.6
793.158	9.13
793.333	-12.07
793.507	-1.47
793.681	-3.24
793.856	-43.86
794.03	-27.96
794.204	-17.37
794.378	-8.54
794.552	-5
794.727	37.38
794.901	-20.9
795.075	5.59
795.249	5.59
795.423	-77.42
795.597	10.89
795.771	-35.03
795.945	5.59
796.119	-8.54
796.293	-42.09
796.467	19.72
796.641	-42.09
796.815	-72.12
796.989	9.13
797.163	-24.43
797.337	76.24
797.511	-13.84
797.685	-68.59
797.859	-35.03
798.032	-29.73
798.206	-15.6
798.38	-17.37
798.554	-27.96
798.727	-42.09
798.901	-54.46
799.075	23.26
799.249	-22.67
799.422	81.54
799.596	-6.77
799.77	21.49
799.943	-17.37
800.117	-1.47
800.29	-8.54
800.464	21.49
800.637	-13.84
800.811	-33.26
800.985	16.19
801.158	-22.67
801.331	-31.5
801.505	-27.96
801.678	-6.77
801.852	7.36
802.025	9.13
802.199	-61.52
802.372	-63.29
802.545	-42.09
802.719	-20.9
802.892	17.96
803.065	-13.84
803.238	0.29
803.412	3.83
803.585	-42.09
803.758	-36.8
803.931	-49.16
804.104	-42.09
804.278	16.19
804.451	56.81
804.624	-12.07
804.797	10.89
804.97	-77.42
805.143	7.36
805.316	39.15
805.489	28.55
805.662	44.45
805.835	-10.3
806.008	-38.56
806.181	26.79
806.354	3.83
806.527	3.83
806.7	-26.2
806.873	-1.47
807.045	12.66
807.218	-1.47
807.391	-22.67
807.564	14.42
807.737	72.71
807.909	-36.8
808.082	-75.65
808.255	-50.93
808.428	46.22
808.6	-27.96
808.773	-36.8
808.946	-17.37
809.118	47.98
809.291	118.63
809.463	-38.56
809.636	-50.93
809.809	-33.26
809.981	-12.07
810.154	62.11
810.326	-1.47
810.499	23.26
810.671	3.83
810.843	25.02
811.016	16.19
811.188	26.79
811.361	0.29
811.533	37.38
811.705	-65.06
811.878	-10.3
812.05	-40.33
812.222	-116.28
812.395	3.83
812.567	-29.73
812.739	-50.93
812.911	35.62
813.083	19.72
813.256	-50.93
813.428	-29.73
813.6	16.19
813.772	56.81
813.944	-15.6
814.116	-61.52
814.288	12.66
814.46	10.89
814.632	67.41
814.804	-79.18
814.976	25.02
815.148	-54.46
815.32	26.79
815.492	-36.8
815.664	-118.04
815.836	-36.8
816.008	-66.82
816.18	-65.06
816.352	-47.39
816.523	17.96
816.695	-26.2
816.867	-114.51
817.039	26.79
817.21	-49.16
817.382	37.38
817.554	-13.84
817.726	26.79
817.897	33.85
818.069	14.42
818.241	-38.56
818.412	-13.84
818.584	-22.67
818.755	5.59
818.927	21.49
819.098	26.79
819.27	116.86
819.441	33.85
819.613	-43.86
819.784	32.09
819.956	-26.2
820.127	9.13
820.299	12.66
820.47	72.71
820.641	-19.13
820.813	-45.63
820.984	-10.3
821.155	-5
821.327	35.62
821.498	14.42
821.669	-47.39
821.84	19.72
822.012	74.47
822.183	21.49
822.354	92.14
822.525	-38.56
822.696	-15.6
822.867	-22.67
823.039	-3.24
823.21	-13.84
823.381	-22.67
823.552	-15.6
823.723	-5
823.894	2.06
824.065	10.89
824.236	19.72
824.407	-1.47
824.578	-17.37
824.749	-35.03
824.919	12.66
825.09	65.64
825.261	-61.52
825.432	-1.47
825.603	-35.03
825.774	-61.52
825.944	-38.56
826.115	28.55
826.286	-22.67
826.457	0.29
826.627	49.75
826.798	-50.93
826.969	56.81
827.139	26.79
827.31	-31.5
827.481	-24.43
827.651	-33.26
827.822	-38.56
827.992	-61.52
828.163	-19.13
828.333	-36.8
828.504	-56.22
828.674	-36.8
828.845	-6.77
829.015	46.22
829.186	-128.64
829.356	-24.43
829.527	26.79
829.697	-31.5
829.867	-107.44
830.038	-12.07
830.208	-5
830.378	-8.54
830.548	-79.18
830.719	-29.73
830.889	-35.03
831.059	-88.02
831.229	-118.04
831.399	30.32
831.57	-22.67
831.74	-35.03
831.91	-57.99
832.08	-24.43
832.25	-3.24
832.42	-26.2
832.59	-49.16
832.76	-26.2
832.93	-15.6
833.1	-12.07
833.27	-24.43
833.44	39.15
833.61	-3.24
833.78	-12.07
833.95	-56.22
834.12	-15.6
834.29	23.26
834.459	-12.07
834.629	-6.77
834.799	-10.3
834.969	51.51
835.139	53.28
835.308	25.02
835.478	10.89
835.648	9.13
835.817	25.02
835.987	30.32
836.157	-33.26
836.326	16.19
836.496	56.81
836.665	-26.2
836.835	-102.15
837.005	-49.16
837.174	17.96
837.344	21.49
837.513	78.01
837.683	23.26
837.852	10.89
838.021	-29.73
838.191	88.6
838.36	-63.29
838.53	14.42
838.699	-93.31
838.868	-54.46
839.038	-100.38
839.207	-6.77
839.376	-35.03
839.546	-43.86
839.715	42.68
839.884	-1.47
840.053	-27.96
840.222	-31.5
840.392	-36.8
840.561	-13.84
840.73	-100.38
840.899	-27.96
841.068	-61.52
841.237	-79.18
841.406	-6.77
841.575	-5
841.744	-42.09
841.913	-91.55
842.082	-12.07
842.251	-42.09
842.42	-45.63
842.589	-3.24
842.758	-6.77
842.927	-35.03
843.096	-73.89
843.264	-135.7
843.433	-57.99
843.602	-49.16
843.771	-42.09
843.94	9.13
844.108	-114.51
844.277	33.85
844.446	81.54
844.614	-56.22
844.783	-45.63
844.952	-22.67
845.12	33.85
845.289	40.92
845.458	42.68
845.626	-15.6
845.795	-1.47
845.963	-22.67
846.132	37.38
846.3	-27.96
846.469	-8.54
846.637	23.26
846.806	-65.06
846.974	-13.84
847.142	-20.9
847.311	37.38
847.479	49.75
847.648	-5
847.816	-63.29
847.984	63.88
848.152	14.42
848.321	21.49
848.489	60.35
848.657	3.83
848.825	-49.16
848.994	25.02
849.162	-98.61
849.33	55.05
849.498	-93.31
849.666	-35.03
849.834	-12.07
850.002	-49.16
850.17	-15.6
850.338	-22.67
850.506	14.42
850.674	14.42
850.842	-73.89
851.01	-19.13
851.178	12.66
851.346	-24.43
851.514	-3.24
851.682	-8.54
851.85	17.96
852.018	-79.18
852.186	-5
852.353	16.19
852.521	-15.6
852.689	-57.99
852.857	2.06
853.024	-35.03
853.192	-73.89
853.36	19.72
853.527	-40.33
853.695	7.36
853.863	0.29
854.03	16.19
854.198	5.59
854.366	70.94
854.533	10.89
854.701	-45.63
854.868	-20.9
855.036	47.98
855.203	-56.22
855.371	12.66
855.538	-1.47
855.705	3.83
855.873	-40.33
856.04	-13.84
856.208	-22.67
856.375	16.19
856.542	-36.8
856.71	28.55
856.877	17.96
857.044	9.13
857.211	32.09
857.379	-68.59
857.546	-49.16
857.713	26.79
857.88	-84.48
858.047	19.72
858.214	-20.9
858.381	-38.56
858.549	-86.25
858.716	-59.76
858.883	65.64
859.05	-56.22
859.217	12.66
859.384	23.26
859.551	30.32
859.718	-13.84
859.885	-52.69
860.052	-8.54
860.218	-20.9
860.385	-20.9
860.552	14.42
860.719	16.19
860.886	58.58
861.053	42.68
861.219	32.09
861.386	74.47
861.553	17.96
861.72	-20.9
861.886	-20.9
862.053	-40.33
862.22	40.92
862.386	-19.13
862.553	-84.48
862.72	-98.61
862.886	-31.5
863.053	19.72
863.219	17.96
863.386	63.88
863.552	-27.96
863.719	-26.2
863.885	-1.47
864.052	72.71
864.218	-35.03
864.385	39.15
864.551	-17.37
864.717	33.85
864.884	-91.55
865.05	7.36
865.216	-40.33
865.383	2.06
865.549	9.13
865.715	0.29
865.881	56.81
866.048	-3.24
866.214	-45.63
866.38	56.81
866.546	-20.9
866.712	21.49
866.878	-19.13
867.045	-40.33
867.211	42.68
867.377	7.36
867.543	-35.03
867.709	-24.43
867.875	10.89
868.041	88.6
868.207	-20.9
868.373	56.81
868.539	30.32
868.705	44.45
868.87	-61.52
869.036	60.35
869.202	-17.37
869.368	-31.5
869.534	46.22
869.7	21.49
869.865	16.19
870.031	-1.47
870.197	9.13
870.363	16.19
870.528	-59.76
870.694	-24.43
870.86	12.66
871.025	60.35
871.191	-73.89
871.356	-12.07
871.522	-40.33
871.688	93.9
871.853	-33.26
872.019	23.26
872.184	42.68
872.35	-17.37
872.515	-10.3
872.68	35.62
872.846	-13.84
873.011	42.68
873.177	-57.99
873.342	-5
873.507	-6.77
873.673	-73.89
873.838	-31.5
874.003	-1.47
874.169	32.09
874.334	-42.09
874.499	16.19
874.664	5.59
874.829	-50.93
874.995	-47.39
875.16	-13.84
875.325	42.68
875.49	5.59
875.655	-72.12
875.82	-3.24
875.985	-6.77
876.15	0.29
876.315	12.66
876.48	-75.65
876.645	37.38
876.81	28.55
876.975	102.73
877.14	-1.47
877.305	-3.24
877.47	0.29
877.635	-20.9
877.799	-86.25
877.964	-40.33
878.129	30.32
878.294	-95.08
878.459	14.42
878.623	-57.99
878.788	-20.9
878.953	-70.35
879.117	30.32
879.282	42.68
879.447	23.26
879.611	-27.96
879.776	63.88
879.941	-24.43
880.105	-45.63
880.27	10.89
880.434	-63.29
880.599	-70.35
880.763	-5
880.928	65.64
881.092	-89.78
881.257	-77.42
881.421	-88.02
881.585	25.02
881.75	-88.02
881.914	17.96
882.078	10.89
882.243	16.19
882.407	-12.07
882.571	-8.54
882.735	-61.52
882.9	-15.6
883.064	25.02
883.228	-24.43
883.392	-57.99
883.556	63.88
883.721	-54.46
883.885	23.26
884.049	-12.07
884.213	65.64
884.377	-6.77
884.541	-38.56
884.705	-59.76
884.869	74.47
885.033	-6.77
885.197	92.14
885.361	-26.2
885.525	62.11
885.689	83.31
885.852	70.94
886.016	-70.35
886.18	67.41
886.344	-8.54
886.508	16.19
886.672	39.15
886.835	-35.03
886.999	-15.6
887.163	2.06
887.326	21.49
887.49	-5
887.654	-3.24
887.817	40.92
887.981	25.02
888.145	28.55
888.308	14.42
888.472	-40.33
888.635	37.38
888.799	2.06
888.962	-13.84
889.126	35.62
889.289	21.49
889.453	-38.56
889.616	7.36
889.78	17.96
889.943	-13.84
890.106	10.89
890.27	5.59
890.433	42.68
890.596	2.06
890.76	63.88
890.923	-43.86
891.086	-12.07
891.249	-20.9
891.413	7.36
891.576	21.49
891.739	30.32
891.902	14.42
892.065	-6.77
892.228	3.83
892.391	-45.63
892.554	-10.3
892.717	39.15
892.88	3.83
893.044	-12.07
893.206	40.92
893.369	9.13
893.532	-19.13
893.695	-89.78
893.858	25.02
894.021	12.66
894.184	28.55
894.347	-20.9
894.51	-20.9
894.673	-29.73
894.835	12.66
894.998	14.42
895.161	-45.63
895.324	-10.3
895.486	-50.93
895.649	-1.47
895.812	-35.03
895.974	37.38
896.137	-26.2
896.3	-36.8
896.462	-100.38
896.625	0.29
896.787	25.02
896.95	35.62
897.112	-1.47
897.275	-12.07
897.437	-13.84
897.6	-26.2
897.762	-24.43
897.925	23.26
898.087	-70.35
898.249	-13.84
898.412	-20.9
898.574	-15.6
898.736	-95.08
898.899	-38.56
899.061	-98.61
899.223	-31.5
899.385	-5
899.548	-61.52
899.71	-40.33
899.872	-49.16
900.034	86.84
900.196	39.15
900.358	25.02
900.521	-35.03
900.683	-20.9
900.845	-91.55
901.007	-65.06
901.169	44.45
901.331	44.45
901.493	44.45
