Data from FLMT043001_11-14-13-204.txt Node
Date: Wed Sep 13 11:14:13 AWST 2023
User: vk1team
Spectrometer: FLMT04300
Trigger mode: 0
Integration Time (sec): 1.000000E-1
Scans to average: 1
Electric dark correction enabled: true
Nonlinearity correction enabled: false
Boxcar width: 0
XAxis mode: Wavelengths
Number of Pixels in Spectrum: 3648
>>>>>Begin Spectral Data<<<<<
195.236	-214.3
195.457	-214.3
195.678	-214.3
195.899	-194.87
196.119	-21.78
196.34	47.1
196.561	8.24
196.782	-73
197.002	-20.02
197.223	108.92
197.444	-9.42
197.664	20.61
197.885	-111.86
198.106	20.61
198.326	78.89
198.547	-62.41
198.768	-7.65
198.988	91.25
199.209	52.4
199.429	52.4
199.65	-4.12
199.871	13.54
200.091	-18.25
200.312	93.02
200.532	36.5
200.753	103.62
200.973	27.67
201.194	61.23
201.414	77.12
201.635	98.32
201.855	15.31
202.076	34.74
202.296	54.16
202.516	87.72
202.737	48.86
202.957	27.67
203.178	94.79
203.398	96.55
203.618	138.94
203.839	2.94
204.059	70.06
204.279	50.63
204.5	15.31
204.72	43.57
204.94	-16.48
205.16	133.64
205.381	73.59
205.601	10.01
205.821	73.59
206.041	22.37
206.262	27.67
206.482	4.71
206.702	71.83
206.922	47.1
207.142	6.48
207.362	84.19
207.583	32.97
207.803	13.54
208.023	47.1
208.243	55.93
208.463	27.67
208.683	138.94
208.903	84.19
209.123	-27.08
209.343	41.8
209.563	31.2
209.783	64.76
210.003	94.79
210.223	77.12
210.443	38.27
210.663	-12.95
210.883	126.58
211.103	-27.08
211.323	31.2
211.543	-23.55
211.763	48.86
211.983	77.12
212.202	87.72
212.422	54.16
212.642	138.94
212.862	98.32
213.082	41.8
213.302	47.1
213.521	103.62
213.741	68.29
213.961	80.66
214.181	48.86
214.4	121.28
214.62	-2.35
214.84	163.67
215.06	142.47
215.279	27.67
215.499	98.32
215.719	4.71
215.938	91.25
216.158	55.93
216.377	13.54
216.597	94.79
216.817	1.18
217.036	52.4
217.256	126.58
217.475	105.38
217.695	57.7
217.914	70.06
218.134	11.77
218.354	-14.72
218.573	91.25
218.793	108.92
219.012	119.51
219.231	93.02
219.451	24.14
219.67	31.2
219.89	110.68
220.109	112.45
220.329	38.27
220.548	50.63
220.767	25.9
220.987	82.42
221.206	41.8
221.425	29.44
221.645	108.92
221.864	100.08
222.083	36.5
222.303	108.92
222.522	41.8
222.741	89.49
222.96	105.38
223.18	66.53
223.399	61.23
223.618	186.63
223.837	68.29
224.056	73.59
224.276	68.29
224.495	107.15
224.714	93.02
224.933	78.89
225.152	103.62
225.371	57.7
225.59	62.99
225.809	108.92
226.028	94.79
226.248	107.15
226.467	-4.12
226.686	108.92
226.905	96.55
227.124	68.29
227.343	45.33
227.562	149.54
227.781	64.76
228	57.7
228.218	4.71
228.437	15.31
228.656	66.53
228.875	73.59
229.094	17.07
229.313	121.28
229.532	41.8
229.751	114.21
229.97	43.57
230.188	32.97
230.407	2.94
230.626	94.79
230.845	-85.37
231.064	66.53
231.282	-16.48
231.501	103.62
231.72	15.31
231.939	144.24
232.157	89.49
232.376	114.21
232.595	43.57
232.813	84.19
233.032	64.76
233.251	18.84
233.469	168.97
233.688	123.05
233.907	70.06
234.125	119.51
234.344	64.76
234.562	154.84
234.781	75.36
234.999	34.74
235.218	6.48
235.436	20.61
235.655	112.45
235.873	146.01
236.092	52.4
236.31	154.84
236.529	27.67
236.747	115.98
236.966	110.68
237.184	47.1
237.403	91.25
237.621	119.51
237.839	61.23
238.058	78.89
238.276	54.16
238.494	-0.59
238.713	98.32
238.931	47.1
239.149	98.32
239.368	4.71
239.586	98.32
239.804	144.24
240.022	82.42
240.241	77.12
240.459	-23.55
240.677	20.61
240.895	-12.95
241.113	167.2
241.332	77.12
241.55	146.01
241.768	20.61
241.986	133.64
242.204	135.41
242.422	41.8
242.64	96.55
242.859	115.98
243.077	91.25
243.295	119.51
243.513	101.85
243.731	61.23
243.949	89.49
244.167	34.74
244.385	6.48
244.603	177.8
244.821	174.27
245.039	89.49
245.257	144.24
245.475	112.45
245.692	45.33
245.91	89.49
246.128	82.42
246.346	78.89
246.564	70.06
246.782	68.29
247	85.96
247.218	68.29
247.435	112.45
247.653	-14.72
247.871	160.14
248.089	105.38
248.306	25.9
248.524	41.8
248.742	112.45
248.96	85.96
249.177	62.99
249.395	121.28
249.613	-14.72
249.83	41.8
250.048	77.12
250.266	27.67
250.483	10.01
250.701	123.05
250.919	41.8
251.136	55.93
251.354	70.06
251.571	103.62
251.789	18.84
252.006	62.99
252.224	34.74
252.441	87.72
252.659	75.36
252.876	11.77
253.094	27.67
253.311	154.84
253.529	124.81
253.746	29.44
253.964	68.29
254.181	108.92
254.399	101.85
254.616	124.81
254.833	-18.25
255.051	89.49
255.268	142.47
255.485	78.89
255.703	96.55
255.92	43.57
256.137	50.63
256.355	119.51
256.572	6.48
256.789	-2.35
257.006	91.25
257.224	87.72
257.441	105.38
257.658	-0.59
257.875	64.76
258.092	55.93
258.31	131.88
258.527	130.11
258.744	70.06
258.961	66.53
259.178	48.86
259.395	61.23
259.612	75.36
259.829	94.79
260.046	43.57
260.263	112.45
260.48	160.14
260.698	110.68
260.915	110.68
261.132	84.19
261.349	52.4
261.565	29.44
261.782	131.88
261.999	29.44
262.216	13.54
262.433	124.81
262.65	-21.78
262.867	18.84
263.084	20.61
263.301	91.25
263.518	89.49
263.734	10.01
263.951	36.5
264.168	77.12
264.385	101.85
264.602	50.63
264.818	114.21
265.035	13.54
265.252	144.24
265.469	50.63
265.685	77.12
265.902	77.12
266.119	-32.38
266.336	22.37
266.552	77.12
266.769	77.12
266.986	66.53
267.202	96.55
267.419	59.46
267.635	105.38
267.852	112.45
268.069	40.03
268.285	-23.55
268.502	43.57
268.718	130.11
268.935	84.19
269.151	-2.35
269.368	124.81
269.584	130.11
269.801	121.28
270.017	62.99
270.234	117.75
270.45	138.94
270.666	43.57
270.883	48.86
271.099	108.92
271.316	68.29
271.532	50.63
271.748	84.19
271.965	147.77
272.181	-5.89
272.397	64.76
272.614	77.12
272.83	24.14
273.046	55.93
273.263	73.59
273.479	66.53
273.695	27.67
273.911	121.28
274.127	31.2
274.344	8.24
274.56	29.44
274.776	147.77
274.992	2.94
275.208	170.73
275.424	94.79
275.641	55.93
275.857	59.46
276.073	93.02
276.289	45.33
276.505	57.7
276.721	70.06
276.937	131.88
277.153	101.85
277.369	68.29
277.585	119.51
277.801	165.43
278.017	-27.08
278.233	75.36
278.449	18.84
278.665	77.12
278.881	89.49
279.097	94.79
279.313	75.36
279.528	142.47
279.744	190.16
279.96	117.75
280.176	107.15
280.392	213.12
280.608	55.93
280.823	91.25
281.039	107.15
281.255	62.99
281.471	207.82
281.687	80.66
281.902	48.86
282.118	27.67
282.334	27.67
282.549	82.42
282.765	78.89
282.981	48.86
283.196	2.94
283.412	-46.51
283.628	75.36
283.843	38.27
284.059	105.38
284.274	100.08
284.49	107.15
284.706	68.29
284.921	82.42
285.137	80.66
285.352	190.16
285.568	59.46
285.783	75.36
285.999	103.62
286.214	85.96
286.43	77.12
286.645	61.23
286.861	-41.21
287.076	100.08
287.291	13.54
287.507	115.98
287.722	40.03
287.938	94.79
288.153	126.58
288.368	119.51
288.584	18.84
288.799	121.28
289.014	100.08
289.229	112.45
289.445	41.8
289.66	142.47
289.875	105.38
290.09	91.25
290.306	45.33
290.521	151.3
290.736	133.64
290.951	-0.59
291.166	154.84
291.382	223.72
291.597	117.75
291.812	80.66
292.027	70.06
292.242	112.45
292.457	170.73
292.672	156.6
292.887	319.09
293.102	395.04
293.317	532.8
293.532	674.1
293.747	949.63
293.962	1158.04
294.177	1338.19
294.392	1707.33
294.607	1891.02
294.822	1679.07
295.037	1793.87
295.252	1682.6
295.467	1587.23
295.682	1272.84
295.897	983.19
296.112	1066.2
296.326	1292.27
296.541	1301.1
296.756	1398.24
296.971	1214.56
297.186	847.19
297.4	525.74
297.615	342.05
297.83	236.08
298.045	190.16
298.259	218.42
298.474	71.83
298.689	191.93
298.903	195.46
299.118	158.37
299.333	176.03
299.547	250.21
299.762	147.77
299.977	156.6
300.191	266.11
300.406	285.54
300.62	294.37
300.835	218.42
301.05	257.28
301.264	287.3
301.479	174.27
301.693	237.85
301.908	172.5
302.122	262.58
302.337	248.45
302.551	234.32
302.766	198.99
302.98	241.38
303.194	225.49
303.409	172.5
303.623	289.07
303.838	260.81
304.052	264.34
304.266	271.41
304.481	283.77
304.695	186.63
304.909	186.63
305.124	220.19
305.338	269.64
305.552	380.91
305.766	287.3
305.981	301.43
306.195	402.11
306.409	412.7
306.623	539.87
306.837	566.36
307.052	580.49
307.266	677.63
307.48	866.62
307.694	810.1
307.908	1119.18
308.122	1447.7
308.336	1747.95
308.55	2244.26
308.764	2745.86
308.979	3173.28
309.193	4065.21
309.407	4745.2
309.621	5119.64
309.835	5423.42
310.049	6145.8
310.263	7277.94
310.477	8210.49
310.69	8959.36
310.904	8150.44
311.118	7131.34
311.332	6530.83
311.546	7067.76
311.76	8689.14
311.974	11283.69
312.188	14010.71
312.402	17309.98
312.615	18906.63
312.829	16940.84
313.043	13934.76
313.257	12239.21
313.471	12221.54
313.684	13952.42
313.898	16520.48
314.112	19793.26
314.325	24078.07
314.539	30332.2
314.753	36891.88
314.967	38688.11
315.18	31877.63
315.394	21628.35
315.607	13989.51
315.821	8095.69
316.035	4754.03
316.248	2864.19
316.462	2212.46
316.675	1772.68
316.889	1475.96
317.103	1324.06
317.316	1198.66
317.53	1097.99
317.743	1122.72
317.957	953.16
318.17	739.45
318.384	799.5
318.597	753.58
318.81	720.02
319.024	716.49
319.237	591.09
319.451	734.15
319.664	640.54
319.877	599.92
320.091	573.43
320.304	555.77
320.517	518.68
320.731	481.58
320.944	515.14
321.157	455.09
321.371	456.86
321.584	403.87
321.797	458.62
322.01	522.21
322.223	396.81
322.437	375.61
322.65	501.01
322.863	518.68
323.076	631.71
323.289	684.7
323.502	868.38
323.716	1002.62
323.929	1191.6
324.142	1431.8
324.355	1755.02
324.568	2380.25
324.781	3139.72
324.994	3925.68
325.207	4706.34
325.42	5833.18
325.633	6809.89
325.846	7232.02
326.059	6620.91
326.272	5718.38
326.485	5554.12
326.698	5644.2
326.911	6532.6
327.124	7611.75
327.336	8849.86
327.549	9261.39
327.762	8236.99
327.975	7443.96
328.188	7327.39
328.401	6790.47
328.613	6350.68
328.826	5820.82
329.039	5610.64
329.252	4994.24
329.465	4842.34
329.677	4990.7
329.89	5315.69
330.103	4842.34
330.315	3814.41
330.528	3265.12
330.741	2848.3
330.953	2579.84
331.166	2509.19
331.379	2751.16
331.591	3217.43
331.804	3602.47
332.017	3955.71
332.229	4499.7
332.442	5285.66
332.654	6023.93
332.867	6650.94
333.079	6636.81
333.292	6590.88
333.504	6891.14
333.717	7274.41
333.929	8546.07
334.142	10146.25
334.354	12878.57
334.566	17225.2
334.779	22795.81
334.991	29207.13
335.204	36022.91
335.416	42826.33
335.628	50643.55
335.841	58713.33
336.053	61173.65
336.265	59471.03
336.478	47775.23
336.69	33615.57
336.902	22248.28
337.114	12938.62
337.327	7170.2
337.539	4247.13
337.751	3107.93
337.963	2323.74
338.176	2060.57
338.388	1797.41
338.6	1645.51
338.812	1384.12
339.024	1235.75
339.236	1039.71
339.448	990.25
339.66	893.11
339.873	949.63
340.085	939.03
340.297	896.64
340.509	783.61
340.721	845.42
340.933	841.89
341.145	758.88
341.357	716.49
341.569	681.17
341.781	682.93
341.993	674.1
342.204	682.93
342.416	665.27
342.628	803.03
342.84	806.57
343.052	884.28
343.264	1007.91
343.476	1087.39
343.688	1166.87
343.899	1097.99
344.111	893.11
344.323	976.12
344.535	847.19
344.746	949.63
344.958	990.25
345.17	969.06
345.382	1037.94
345.593	1097.99
345.805	1244.59
346.017	1232.22
346.228	1440.63
346.44	1253.42
346.652	1382.35
346.863	1373.52
347.075	1569.57
347.286	1776.21
347.498	1958.13
347.71	2562.17
347.921	3070.84
348.133	3556.55
348.344	4349.57
348.556	5124.94
348.767	6253.54
348.979	6843.45
349.19	7171.97
349.402	6836.39
349.613	6525.54
349.825	6636.81
350.036	6903.5
350.247	7629.41
350.459	9019.42
350.67	10944.58
350.881	13155.86
351.093	15803.4
351.304	18095.94
351.515	20955.42
351.727	24033.92
351.938	28149.17
352.149	33564.35
352.361	39352.2
352.572	42568.46
352.783	40275.93
352.994	34163.1
353.205	28898.04
353.417	25263.19
353.628	23014.82
353.839	21963.92
354.05	20333.72
354.261	18973.74
354.472	18269.03
354.683	18927.82
354.895	20798.23
355.106	24214.07
355.317	28836.22
355.528	32331.54
355.739	35507.18
355.95	39682.48
356.161	45155.95
356.372	51874.59
356.583	56593.89
356.794	53808.58
357.005	44165.11
357.216	35470.09
357.427	26843.95
357.638	17755.06
357.848	11152.99
358.059	7020.07
358.27	4434.35
358.481	3053.18
358.692	2263.68
358.903	1693.2
359.114	1502.45
359.324	1233.99
359.535	1066.2
359.746	1124.48
359.957	1060.9
360.167	1145.68
360.378	1159.81
360.589	1242.82
360.8	1175.7
361.01	1172.17
361.221	1292.27
361.432	1302.87
361.642	1451.23
361.853	1580.16
362.063	1875.12
362.274	2041.14
362.485	2265.45
362.695	2611.63
362.906	3031.98
363.116	3187.41
363.327	3167.98
363.537	2880.09
363.748	2565.71
363.958	2263.68
364.169	2041.14
364.379	1922.81
364.59	2191.27
364.8	2546.28
365.011	3042.58
365.221	3740.23
365.431	4358.4
365.642	5358.07
365.852	6440.76
366.063	7090.72
366.273	6585.59
366.483	5517.03
366.694	4490.87
366.904	3667.82
367.114	3176.81
367.324	2772.35
367.535	2447.37
367.745	2382.02
367.955	2518.02
368.165	2911.88
368.375	3657.22
368.586	4377.83
368.796	5474.64
369.006	6666.83
369.216	8251.12
369.426	9884.86
369.636	11820.61
369.846	14008.94
370.057	14660.67
370.267	12839.71
370.477	10480.07
370.687	9127.15
370.897	7855.49
371.107	6725.12
371.317	5677.76
371.527	5656.56
371.737	5813.75
371.947	6382.47
372.157	6958.26
372.367	7885.51
372.576	9054.74
372.786	10236.33
372.996	11008.16
373.206	12154.43
373.416	14026.6
373.626	16020.65
373.836	19053.22
374.045	22532.64
374.255	26268.16
374.465	27550.43
374.675	24194.64
374.885	18177.18
375.094	13685.73
375.304	10239.86
375.514	7193.16
375.724	4932.42
375.933	3362.26
376.143	2747.62
376.353	2484.46
376.562	2623.99
376.772	2818.27
376.981	3012.56
377.191	3450.57
377.401	4257.73
377.61	5020.73
377.82	5944.45
378.029	7164.9
378.239	8323.53
378.448	9976.7
378.658	11689.92
378.867	14017.77
379.077	16962.03
379.286	19657.26
379.496	19798.56
379.705	16327.97
379.915	12401.7
380.124	9399.15
380.333	7366.25
380.543	4953.61
380.752	3224.5
380.962	2459.73
381.171	1894.55
381.38	1693.2
381.589	1670.24
381.799	1657.88
382.008	1815.07
382.217	1945.77
382.427	2187.74
382.636	2445.6
382.845	2671.68
383.054	3129.12
383.263	3597.17
383.473	4031.66
383.682	4566.81
383.891	5209.71
384.1	6025.7
384.309	6827.56
384.518	7790.14
384.727	8122.18
384.936	7504.01
385.146	6824.02
385.355	6454.89
385.564	6197.02
385.773	6200.55
385.982	6000.97
386.191	6343.62
386.4	6748.08
386.609	7156.07
386.818	8411.84
387.027	9930.78
387.235	11645.76
387.444	12511.2
387.653	12680.76
387.862	12834.42
388.071	13593.88
388.28	14427.53
388.489	14418.7
388.698	13139.97
388.906	12876.8
389.115	12620.71
389.324	12214.48
389.533	12165.02
389.741	12977.48
389.95	14713.66
390.159	18839.51
390.368	20713.45
390.576	18774.16
390.785	14422.23
390.994	11545.09
391.202	9814.21
391.411	7940.26
391.62	6451.35
391.828	6098.11
392.037	5764.3
392.245	6159.93
392.454	6778.1
392.662	7964.99
392.871	9406.21
393.08	10405.89
393.288	10126.83
393.497	8351.79
393.705	6854.05
393.913	5536.46
394.122	4492.63
394.33	3752.59
394.539	2832.4
394.747	2450.9
394.956	2074.7
395.164	1917.51
395.372	1974.03
395.581	2108.26
395.789	2182.44
395.997	2523.32
396.206	2717.6
396.414	3233.33
396.622	3537.12
396.831	3775.56
397.039	4393.73
397.247	4593.31
397.455	5073.72
397.663	6027.47
397.872	6786.93
398.08	8215.79
398.288	9392.08
398.496	10790.92
398.704	11080.58
398.912	9697.64
399.121	7629.41
399.329	6073.39
399.537	4593.31
399.745	3667.82
399.953	2452.67
400.161	1726.76
400.369	1152.74
400.577	854.25
400.785	716.49
400.993	670.57
401.201	728.85
401.409	723.55
401.617	741.22
401.825	785.37
402.033	903.71
402.24	1006.15
402.448	1082.09
402.656	1338.19
402.864	1504.22
403.072	1698.5
403.28	2085.3
403.487	2185.97
403.695	2728.2
403.903	3005.49
404.111	3498.26
404.319	4149.99
404.526	5038.39
404.734	5488.77
404.942	5098.44
405.149	4291.29
405.357	3515.92
405.565	2906.58
405.772	2468.56
405.98	2124.15
406.188	1770.91
406.395	1664.94
406.603	1717.93
406.81	1866.29
407.018	1961.66
407.226	2283.11
407.433	2431.47
407.641	2719.37
407.848	3136.19
408.056	3738.47
408.263	4054.62
408.471	3602.47
408.678	3220.97
408.885	2592.2
409.093	2182.44
409.3	1938.7
409.508	1670.24
409.715	1560.74
409.922	1440.63
410.13	1309.93
410.337	1226.92
410.544	1389.41
410.752	1394.71
410.959	1627.85
411.166	1887.48
411.373	2007.59
411.581	2300.78
411.788	2618.69
411.995	2767.05
412.202	3192.71
412.41	3584.81
412.617	4271.86
412.824	4964.21
413.031	5324.52
413.238	4856.47
413.445	4017.53
413.652	3515.92
413.859	3137.96
414.067	2742.33
414.274	2357.29
414.481	2184.21
414.688	2081.77
414.895	2048.21
415.102	2210.7
415.309	2399.68
415.516	2744.09
415.723	2968.4
415.929	3115
416.136	3090.27
416.343	3222.73
416.55	3554.78
416.757	3856.8
416.964	4015.76
417.171	4483.8
417.378	4817.62
417.584	5216.78
417.791	5294.49
417.998	5508.2
418.205	5953.29
418.412	6414.26
418.618	7440.43
418.825	8171.64
419.032	8199.9
419.239	7186.1
419.445	6145.8
419.652	5478.18
419.859	4653.36
420.065	4063.45
420.272	3662.52
420.478	3383.46
420.685	3155.62
420.892	3155.62
421.098	2984.3
421.305	3046.11
421.511	3009.02
421.718	3349.9
421.924	3636.03
422.131	4081.11
422.337	4969.51
422.544	5637.13
422.75	5343.94
422.957	4713.41
423.163	4360.17
423.37	4017.53
423.576	3892.12
423.782	3480.6
423.989	3312.81
424.195	3379.93
424.401	3554.78
424.608	3803.81
424.814	4081.11
425.02	4379.6
425.227	4833.51
425.433	5492.31
425.639	6112.24
425.845	6189.96
426.052	5912.66
426.258	5778.43
426.464	6119.31
426.67	6597.95
426.876	6350.68
427.083	5043.69
427.289	3902.72
427.495	3136.19
427.701	2496.82
427.907	2072.93
428.113	1309.93
428.319	1025.58
428.525	783.61
428.731	608.75
428.937	495.71
429.143	396.81
429.349	405.64
429.555	462.16
429.761	331.46
429.967	469.22
430.173	448.03
430.379	449.79
430.585	432.13
430.791	511.61
430.997	576.96
431.203	591.09
431.408	760.65
431.614	645.84
431.82	750.05
432.026	1000.85
432.232	1060.9
432.437	1226.92
432.643	1484.79
432.849	1786.81
433.055	1880.42
433.26	2161.24
433.466	1989.92
433.672	2016.42
433.877	2140.05
434.083	2097.66
434.289	2299.01
434.494	2420.88
434.7	2208.93
434.906	1885.72
435.111	1454.76
435.317	1297.57
435.522	1113.89
435.728	961.99
435.933	794.2
436.139	716.49
436.344	488.65
436.55	400.34
436.755	331.46
436.961	432.13
437.166	354.42
437.372	363.25
437.577	382.68
437.782	405.64
437.988	479.82
438.193	508.08
438.398	612.28
438.604	741.22
438.809	668.8
439.014	861.32
439.22	967.29
439.425	961.99
439.63	1108.59
439.835	1191.6
440.041	1504.22
440.246	1656.11
440.451	1917.51
440.656	1776.21
440.861	1509.52
441.067	1295.81
441.272	1244.59
441.477	909.01
441.682	884.28
441.887	764.18
442.092	640.54
442.297	677.63
442.502	742.98
442.707	850.72
442.912	815.4
443.117	866.62
443.322	974.36
443.527	1101.52
443.732	1050.3
443.937	1244.59
444.142	1255.18
444.347	1475.96
444.552	1352.32
444.757	1527.18
444.962	1521.88
445.166	1470.66
445.371	1543.07
445.576	1657.88
445.781	1624.32
445.986	1650.81
446.191	1624.32
446.395	1629.62
446.6	1509.52
446.805	1634.92
447.01	1735.59
447.214	1903.38
447.419	2120.62
447.624	2212.46
447.828	2367.89
448.033	2071.17
448.238	1919.28
448.442	1705.56
448.647	1475.96
448.851	1384.12
449.056	1285.21
449.261	1159.81
449.465	1053.84
449.67	917.84
449.874	988.49
450.079	963.76
450.283	1083.86
450.488	1097.99
450.692	1143.91
450.896	1122.72
451.101	958.46
451.305	898.41
451.51	788.9
451.714	843.66
451.918	882.51
452.123	947.86
452.327	741.22
452.531	838.36
452.736	856.02
452.94	840.12
453.144	914.3
453.349	1023.81
453.553	1096.22
453.757	1119.18
453.961	1359.39
454.166	1502.45
454.37	1550.14
454.574	1511.28
454.778	1548.37
454.982	1407.08
455.186	1477.72
455.39	1308.17
455.595	1422.97
455.799	1366.45
456.003	1419.44
456.207	1493.62
456.411	1437.1
456.615	1350.56
456.819	1286.97
457.023	1235.75
457.227	1163.34
457.431	965.52
457.635	992.02
457.839	963.76
458.043	963.76
458.246	1022.04
458.45	1096.22
458.654	1272.84
458.858	1502.45
459.062	1583.7
459.266	1265.78
459.47	1235.75
459.673	907.24
459.877	1000.85
460.081	790.67
460.285	868.38
460.488	801.27
460.692	711.19
460.896	718.26
461.1	645.84
461.303	677.63
461.507	863.09
461.711	792.44
461.914	919.6
462.118	969.06
462.321	956.69
462.525	1175.7
462.729	1260.48
462.932	1242.82
463.136	1412.37
463.339	1460.06
463.543	1707.33
463.746	1975.79
463.95	2132.99
464.153	2168.31
464.357	1901.61
464.56	1672.01
464.764	1491.85
464.967	1345.26
465.17	1249.88
465.374	1052.07
465.577	958.46
465.78	840.12
465.984	637.01
466.187	656.44
466.39	603.45
466.594	541.64
466.797	536.34
467	486.88
467.203	522.21
467.407	552.23
467.61	559.3
467.813	610.52
468.016	599.92
468.219	628.18
468.423	656.44
468.626	783.61
468.829	651.14
469.032	684.7
469.235	794.2
469.438	981.42
469.641	1150.98
469.844	1246.35
470.047	1161.57
470.25	1135.08
470.453	1062.67
470.656	1030.87
470.859	1089.16
471.062	1117.42
471.265	1014.98
471.468	841.89
471.671	790.67
471.874	716.49
472.077	730.62
472.28	538.1
472.483	624.65
472.685	645.84
472.888	665.27
473.091	704.13
473.294	751.81
473.497	852.49
473.699	820.7
473.902	893.11
474.105	993.78
474.308	958.46
474.51	1025.58
474.713	946.1
474.916	1000.85
475.118	969.06
475.321	891.34
475.524	924.9
475.726	995.55
475.929	788.9
476.131	864.85
476.334	737.68
476.536	776.54
476.739	787.14
476.942	803.03
477.144	767.71
477.347	795.97
477.549	681.17
477.751	682.93
477.954	679.4
478.156	728.85
478.359	774.77
478.561	690
478.764	792.44
478.966	811.87
479.168	797.74
479.371	866.62
479.573	838.36
479.775	921.37
479.978	960.23
480.18	1034.41
480.382	1011.45
480.584	954.93
480.787	940.8
480.989	854.25
481.191	916.07
481.393	758.88
481.595	847.19
481.797	808.33
482	744.75
482.202	753.58
482.404	820.7
482.606	797.74
482.808	838.36
483.01	891.34
483.212	852.49
483.414	917.84
483.616	896.64
483.818	969.06
484.02	903.71
484.222	1152.74
484.424	946.1
484.626	1034.41
484.828	1158.04
485.03	1302.87
485.232	1327.6
485.434	1465.36
485.636	1421.21
485.837	1560.74
486.039	1551.9
486.241	1656.11
486.443	1777.98
486.645	1638.45
486.847	1786.81
487.048	1915.74
487.25	1919.28
487.452	2053.51
487.653	2118.86
487.855	2224.83
488.057	2426.18
488.259	2353.76
488.46	2307.84
488.662	2412.05
488.863	2419.11
489.065	2530.38
489.267	2510.95
489.468	2622.22
489.67	2749.39
489.871	2918.95
490.073	2980.76
490.274	3000.19
490.476	2878.32
490.677	2888.92
490.879	2867.73
491.08	2641.65
491.282	2643.42
491.483	2636.35
491.685	2422.64
491.886	2302.54
492.087	2249.56
492.289	1977.56
492.49	1903.38
492.691	1860.99
492.893	1822.13
493.094	1587.23
493.295	1666.71
493.497	1576.63
493.698	1608.42
493.899	1490.09
494.1	1509.52
494.302	1454.76
494.503	1564.27
494.704	1640.21
494.905	1588.99
495.106	1389.41
495.307	1384.12
495.509	1463.59
495.71	1274.61
495.911	1394.71
496.112	1368.22
496.313	1401.78
496.514	1362.92
496.715	1396.48
496.916	1244.59
497.117	1318.77
497.318	1120.95
497.519	1119.18
497.72	1089.16
497.921	1083.86
498.122	1142.15
498.323	1184.53
498.524	1209.26
498.724	1249.88
498.925	1301.1
499.126	1322.3
499.327	1382.35
499.528	1465.36
499.729	1641.98
499.929	1945.77
500.13	2030.55
500.331	2170.08
500.532	2155.95
500.732	2194.8
500.933	2148.88
501.134	2300.78
501.334	2309.61
501.535	2217.76
501.736	2321.97
501.936	2436.77
502.137	2544.51
502.338	2553.34
502.538	2447.37
502.739	2502.12
502.939	2542.75
503.14	2556.87
503.34	2615.16
503.541	2675.21
503.741	2507.42
503.942	2549.81
504.142	2797.08
504.343	2906.58
504.543	2767.05
504.744	2839.47
504.944	2860.66
505.144	2892.45
505.345	2971.93
505.545	3081.44
505.745	2966.63
505.946	3062.01
506.146	3247.46
506.346	3162.68
506.547	3358.73
506.747	3697.84
506.947	3378.16
507.147	3339.3
507.347	3201.54
507.548	3095.57
507.748	3099.1
507.948	2966.63
508.148	2929.54
508.348	2800.61
508.548	2959.57
508.749	2855.36
508.949	2931.31
509.149	2986.06
509.349	2777.65
509.549	2927.78
509.749	3001.96
509.949	3111.46
510.149	2996.66
510.349	2956.04
510.549	3003.72
510.749	3164.45
510.949	3226.27
511.149	3273.95
511.349	3371.09
511.548	3683.71
511.748	3800.28
511.948	3932.75
512.148	4222.41
512.348	4510.3
512.548	5094.91
512.747	4934.19
512.947	4978.34
513.147	5229.14
513.347	5320.98
513.546	5538.23
513.746	6023.93
513.946	6211.15
514.146	6301.23
514.345	6534.37
514.545	6965.32
514.745	6896.44
514.944	7035.97
515.144	7385.68
515.343	7767.18
515.543	8378.28
515.743	8530.18
515.942	8544.31
516.142	8563.73
516.341	8811
516.541	9095.36
516.74	9432.71
516.94	9644.65
517.139	9957.27
517.338	10282.25
517.538	9980.23
517.737	9635.82
517.937	9741.79
518.136	9609.33
518.335	9591.67
518.535	9980.23
518.734	9826.57
518.933	9300.24
519.133	9356.76
519.332	9422.11
519.531	9383.25
519.731	9459.2
519.93	9506.89
520.129	9612.86
520.328	9994.36
520.527	9166.01
520.727	8441.87
520.926	7719.49
521.125	7564.06
521.324	7041.27
521.523	6589.12
521.722	6053.96
521.921	5653.03
522.12	5101.97
522.319	4769.93
522.518	4635.7
522.717	4457.31
522.916	4280.69
523.115	4128.8
523.314	4425.52
523.513	4178.25
523.712	3743.76
523.911	3574.21
524.11	3385.22
524.309	3127.36
524.508	2805.91
524.707	2931.31
524.906	2715.83
525.104	2535.68
525.303	2371.42
525.502	2256.62
525.701	2175.37
525.9	2251.32
526.098	2295.48
526.297	2297.24
526.496	2374.96
526.695	2249.56
526.893	2251.32
527.092	2115.32
527.291	2016.42
527.489	1977.56
527.688	1965.2
527.886	1922.81
528.085	1838.03
528.284	1781.51
528.482	1723.23
528.681	1737.36
528.879	1677.31
529.078	1882.18
529.276	1776.21
529.475	1868.06
529.673	2062.34
529.872	2018.18
530.07	2074.7
530.269	2018.18
530.467	1965.2
530.665	2087.06
530.864	2078.23
531.062	1922.81
531.261	2120.62
531.459	2168.31
531.657	2251.32
531.855	2147.12
532.054	2295.48
532.252	2641.65
532.45	2814.74
532.649	3212.14
532.847	3535.35
533.045	4093.47
533.243	4492.63
533.441	5130.23
533.639	6083.98
533.838	6843.45
534.036	7821.93
534.234	8749.19
534.432	9385.02
534.63	9699.4
534.828	9976.7
535.026	10543.65
535.224	10951.64
535.422	11442.65
535.62	12306.32
535.818	12422.89
536.016	12922.73
536.214	13765.21
536.412	13682.19
536.61	13373.11
536.808	13205.32
537.006	13104.65
537.204	13290.1
537.401	13837.62
537.599	13895.9
537.797	14206.76
537.995	13931.23
538.193	14079.59
538.391	13781.1
538.588	13867.65
538.786	14047.8
538.984	14598.85
539.182	14934.43
539.379	14763.11
539.577	15503.15
539.775	15600.29
539.972	14590.02
540.17	13987.75
540.368	13480.85
540.565	13261.84
540.763	13383.71
540.96	13101.11
541.158	13196.49
541.355	13026.93
541.553	12550.06
541.75	12308.09
541.948	11923.05
542.145	11977.81
542.343	12320.45
542.54	12332.81
542.738	12292.19
542.935	12495.3
543.133	12908.6
543.33	12988.08
543.527	11682.85
543.725	11476.2
543.922	10990.5
544.119	10925.15
544.317	10824.48
544.514	10584.27
544.711	10948.11
544.908	11089.41
545.106	11085.87
545.303	11310.18
545.5	11193.61
545.697	10831.54
545.895	11124.73
546.092	11320.78
546.289	11458.54
546.486	11492.1
546.683	11893.03
546.88	12078.48
547.077	11382.6
547.274	11154.76
547.471	10676.11
547.668	10231.03
547.865	9747.09
548.063	9515.72
548.259	9264.92
548.456	9215.46
548.653	9035.31
548.85	8825.13
549.047	8777.45
549.244	9114.79
549.441	9259.62
549.638	9543.98
549.835	9724.13
550.032	9966.1
550.229	9974.93
550.425	10326.41
550.622	10338.77
550.819	10368.8
551.016	10001.42
551.212	9720.6
551.409	9588.13
551.606	9722.36
551.803	9157.18
551.999	8673.24
552.196	8081.56
552.393	7647.07
552.589	7120.75
552.786	6714.52
552.983	6186.42
553.179	5912.66
553.376	5925.03
553.572	5746.64
553.769	5730.74
553.965	5815.52
554.162	5559.42
554.358	5748.41
554.555	5571.78
554.751	5577.08
554.948	5195.58
555.144	5340.41
555.341	5268
555.537	5257.4
555.733	5264.47
555.93	5229.14
556.126	5266.23
556.322	4981.87
556.519	4686.92
556.715	4612.74
556.911	4379.6
557.108	4049.32
557.304	4008.69
557.5	3855.03
557.696	3726.1
557.893	3761.43
558.089	3620.13
558.285	3590.1
558.481	3554.78
558.677	3477.07
558.873	3328.71
559.07	3307.51
559.266	3125.59
559.462	3129.12
559.658	3033.75
559.854	3009.02
560.05	2970.17
560.246	3074.37
560.442	3157.38
560.638	3190.94
560.834	3157.38
561.03	2770.59
561.226	2701.7
561.422	2726.43
561.618	2551.58
561.813	2422.64
562.009	2281.35
562.205	2265.45
562.401	2214.23
562.597	2274.28
562.793	2238.96
562.988	2104.73
563.184	2138.28
563.38	2053.51
563.576	1921.04
563.772	2080
563.967	1871.59
564.163	2071.17
564.359	1894.55
564.554	2154.18
564.75	1982.86
564.946	2249.56
565.141	2270.75
565.337	2277.81
565.532	2101.19
565.728	2131.22
565.923	2025.25
566.119	2014.65
566.315	1926.34
566.51	1986.39
566.706	1908.68
566.901	1989.92
567.096	1970.49
567.292	2212.46
567.487	2224.83
567.683	2316.67
567.878	2244.26
568.074	2468.56
568.269	2606.33
568.464	2708.77
568.66	2804.14
568.855	3056.71
569.05	3201.54
569.245	3334
569.441	3597.17
569.636	4326.61
569.831	4667.49
570.026	5237.97
570.222	5612.41
570.417	6223.51
570.612	6794
570.807	7885.51
571.002	9005.29
571.197	10467.7
571.393	11850.64
571.588	13957.72
571.783	16015.35
571.978	17906.95
572.173	20439.69
572.368	21951.56
572.563	22562.67
572.758	23154.35
572.953	23915.58
573.148	24952.34
573.343	25595.24
573.538	26646.13
573.733	27553.96
573.927	28117.38
574.122	27347.31
574.317	28428.23
574.512	29196.53
574.707	28569.53
574.902	26467.74
575.096	24938.21
575.291	24203.47
575.486	23954.44
575.681	23624.16
575.876	23360.99
576.07	23751.32
576.265	24447.21
576.46	26063.28
576.654	27965.49
576.849	29528.58
577.044	32179.65
577.238	33944.09
577.433	34617.01
577.627	34647.04
577.822	36067.06
578.017	36626.95
578.211	37483.56
578.406	38382.56
578.6	39947.41
578.795	40063.98
578.989	39327.48
579.184	39578.28
579.378	41575.85
579.572	39539.42
579.767	36987.26
579.961	33364.77
580.156	32101.94
580.35	30448.77
580.544	28981.05
580.739	27553.96
580.933	27031.16
581.127	26531.33
581.322	26368.84
581.516	27251.94
581.71	28392.91
581.904	29915.37
582.099	31482
582.293	32527.59
582.487	32569.98
582.681	32183.18
582.875	33527.26
583.069	33486.64
583.263	34341.48
583.458	35401.2
583.652	36445.03
583.846	36741.75
584.04	36319.63
584.234	36411.47
584.428	37110.89
584.622	35890.44
584.816	32753.66
585.01	30473.5
585.204	28354.05
585.398	26789.19
585.592	26033.26
585.786	24380.09
585.979	23661.25
586.173	23212.63
586.367	23341.56
586.561	23740.73
586.755	24768.66
586.949	25623.5
587.142	27292.56
587.336	28890.98
587.53	29673.4
587.724	29085.26
587.917	29834.13
588.111	29509.15
588.305	30461.13
588.499	30399.31
588.692	31967.7
588.886	32621.2
589.08	32275.02
589.273	31312.44
589.467	32681.25
589.66	33299.42
589.854	30888.55
590.047	27878.94
590.241	26022.66
590.434	24019.79
590.628	23057.2
590.821	21250.38
591.015	20480.31
591.208	19651.96
591.402	19017.9
591.595	19146.83
591.789	20095.28
591.982	20752.31
592.175	21661.9
592.369	23069.57
592.562	24450.74
592.755	25254.36
592.949	24978.83
593.142	25549.32
593.335	25561.68
593.529	25775.39
593.722	26317.62
593.915	26653.2
594.108	27811.83
594.301	27492.14
594.495	27423.26
594.688	27131.84
594.881	28783.24
595.074	27949.59
595.267	25098.94
595.46	22647.45
595.653	21057.86
595.846	19515.97
596.039	18244.3
596.232	17119.23
596.425	16006.52
596.618	15229.39
596.811	14879.68
597.004	14893.81
597.197	15347.72
597.39	15508.45
597.583	16490.46
597.776	17234.03
597.969	18219.57
598.162	19040.86
598.355	18781.22
598.548	18918.99
598.74	19425.89
598.933	19183.92
599.126	19787.96
599.319	20284.26
599.511	21225.65
599.704	21245.08
599.897	21047.26
600.09	20476.78
600.282	21479.98
600.475	22008.08
600.668	20406.13
600.86	18336.14
601.053	16896.69
601.245	15663.87
601.438	14704.83
601.631	13689.26
601.823	13180.59
602.016	12686.05
602.208	12472.34
602.401	12170.32
602.593	12403.46
602.786	12664.86
602.978	13523.24
603.171	13858.81
603.363	15088.09
603.555	16038.31
603.748	16960.27
603.94	16393.32
604.133	16585.83
604.325	16656.48
604.517	16771.28
604.71	16932.01
604.902	17454.81
605.094	17772.72
605.286	18313.18
605.479	17887.53
605.671	17659.69
605.863	17553.71
606.055	18949.01
606.247	17749.76
606.44	15594.99
606.632	14204.99
606.824	13095.81
607.016	12055.52
607.208	10902.19
607.4	10128.59
607.592	9323.2
607.784	8637.92
607.976	7959.69
608.168	7661.2
608.36	7539.34
608.552	7436.9
608.744	7779.54
608.936	7677.1
609.128	8086.86
609.32	8682.07
609.512	8853.39
609.704	8879.89
609.896	8623.79
610.087	8832.2
610.279	9116.56
610.471	8982.32
610.663	9166.01
610.855	9679.98
611.046	9766.52
611.238	9768.29
611.43	9347.93
611.622	9605.79
611.813	9985.53
612.005	10019.09
612.197	8934.64
612.388	8459.53
612.58	7744.22
612.772	7352.12
612.963	6845.22
613.155	6642.1
613.346	6490.21
613.538	6015.1
613.729	6076.92
613.921	5940.92
614.112	6061.02
614.304	6454.89
614.495	6684.49
614.687	6961.79
614.878	7396.27
615.07	7523.44
615.261	7973.82
615.452	7760.11
615.644	7987.95
615.835	7922.6
616.026	8233.45
616.218	8108.05
616.409	8079.79
616.6	8228.16
616.792	8531.94
616.983	8242.29
617.174	8005.61
617.365	8171.64
617.557	8496.62
617.748	8365.92
617.939	7938.5
618.13	7332.69
618.321	7065.99
618.512	6606.78
618.703	6368.34
618.894	6062.79
619.086	6018.63
619.277	5887.94
619.468	5923.26
619.659	5864.97
619.85	6301.23
620.041	6467.25
620.232	7013.01
620.423	7691.23
620.613	8480.72
620.804	9420.34
620.995	10213.37
621.186	11251.9
621.377	11990.17
621.568	12827.35
621.759	13717.52
621.95	14247.38
622.14	14275.64
622.331	14277.4
622.522	14812.56
622.713	15028.04
622.903	15254.12
623.094	15222.32
623.285	15941.17
623.475	16055.97
623.666	16057.74
623.857	15312.4
624.047	15211.73
624.238	15285.91
624.429	15628.55
624.619	14637.71
624.81	13095.81
625	12006.07
625.191	11364.93
625.381	10621.36
625.572	10243.39
625.762	9591.67
625.953	9054.74
626.143	8486.02
626.334	8461.29
626.524	8279.38
626.715	8531.94
626.905	8945.23
627.095	9469.8
627.286	10368.8
627.476	11232.47
627.666	12272.76
627.857	13528.53
628.047	14876.15
628.237	16624.69
628.427	17710.91
628.618	18834.21
628.808	20187.12
628.998	19984.01
629.188	20141.2
629.378	20056.42
629.569	20568.62
629.759	21598.32
629.949	21467.62
630.139	21543.57
630.329	22009.85
630.519	22633.32
630.709	22295.97
630.899	21478.22
631.089	21386.38
631.279	22276.54
631.469	21714.89
631.659	20688.73
631.849	18311.41
632.039	16919.65
632.229	15803.4
632.419	14734.85
632.609	13837.62
632.799	13549.73
632.988	12376.97
633.178	11345.51
633.368	10969.3
633.558	10994.03
633.748	10925.15
633.937	11476.2
634.127	11995.47
634.317	12940.39
634.507	13846.45
634.696	15187
634.886	16970.87
635.076	18707.04
635.265	20058.19
635.455	22073.43
635.645	23343.33
635.834	25051.25
636.024	26149.83
636.213	25771.86
636.403	25243.77
636.592	25771.86
636.782	26280.53
636.971	27267.84
637.161	27142.43
637.35	27135.37
637.54	28124.44
637.729	28580.12
637.919	27553.96
638.108	26601.98
638.297	26552.52
638.487	27668.76
638.676	27815.36
638.866	25362.1
639.055	22474.36
639.244	20528
639.433	19210.41
639.623	18028.82
639.812	16916.11
640.001	16379.19
640.19	14953.86
640.38	13828.79
640.569	12959.82
640.758	13071.09
640.947	12919.19
641.136	13325.42
641.325	14021.3
641.514	15144.61
641.703	15881.12
641.893	17670.28
642.082	19501.84
642.271	21887.98
642.46	23721.3
642.649	26216.94
642.838	27587.52
643.027	29963.06
643.215	31381.32
643.404	32464.01
643.593	31893.52
643.782	31723.97
643.971	32091.34
644.16	32349.2
644.349	33444.25
644.538	33569.65
644.726	33470.74
644.915	34180.76
645.104	35468.32
645.293	34751.24
645.481	32626.5
645.67	32926.75
645.859	34083.62
646.048	34569.32
646.236	32423.38
646.425	28834.46
646.614	25992.64
646.802	23413.98
646.991	22059.3
647.179	20538.6
647.368	19786.19
647.557	17947.58
647.745	16580.53
647.934	15310.63
648.122	14658.9
648.311	14314.49
648.499	14491.12
648.687	15255.88
648.876	15633.85
649.064	16633.52
649.253	17905.19
649.441	19561.89
649.63	21771.41
649.818	23987.99
650.006	26550.76
650.195	28878.61
650.383	30169.71
650.571	32926.75
650.759	34382.1
650.948	35754.45
651.136	34996.74
651.324	34700.02
651.512	34802.46
651.7	35611.38
651.889	36316.1
652.077	36370.85
652.265	36264.88
652.453	37743.19
652.641	38811.74
652.829	38511.49
653.017	36662.27
653.205	35789.77
653.393	36353.19
653.581	38840
653.769	37382.89
653.957	33725.08
654.145	29986.02
654.333	27133.6
654.521	25021.22
654.709	23378.65
654.897	22548.54
655.085	21195.63
655.273	19383.5
655.461	18111.83
655.648	16930.24
655.836	16451.6
656.024	16393.32
656.212	16939.07
656.399	17627.89
656.587	18839.51
656.775	20044.06
656.963	22039.87
657.15	24138.12
657.338	26640.83
657.526	29284.84
657.713	32585.88
657.901	35268.74
658.089	38218.3
658.276	40116.97
658.464	43091.26
658.651	44802.71
658.839	45065.87
659.026	44795.64
659.214	44827.44
659.401	44876.89
659.589	45982.53
659.776	46019.62
659.964	47006.93
660.151	46079.67
660.338	48234.44
660.526	49603.25
660.713	48651.27
660.901	46162.69
661.088	45795.32
661.275	47254.2
661.463	49590.89
661.65	47391.96
661.837	42617.91
662.024	37933.94
662.212	34145.43
662.399	31563.24
662.586	29692.83
662.773	28426.46
662.96	26494.24
663.147	24454.27
663.335	22212.96
663.522	20406.13
663.709	19065.58
663.896	18307.88
664.083	18299.05
664.27	18590.47
664.457	18864.24
664.644	19443.55
664.831	20584.52
665.018	21780.24
665.205	23799.01
665.392	25365.63
665.579	27820.66
665.766	29599.22
665.953	32670.65
666.139	34170.16
666.326	35964.62
666.513	38032.85
666.7	39373.4
666.887	38681.05
667.074	37903.92
667.26	37225.69
667.447	37557.74
667.634	38022.25
667.821	38188.27
668.007	38403.75
668.194	38474.4
668.381	38520.32
668.567	40777.53
668.754	40224.71
668.94	38216.53
669.127	36372.62
669.314	36900.71
669.5	39219.74
669.687	39157.92
669.873	35321.73
670.06	31089.9
670.246	27220.15
670.433	24385.39
670.619	22294.2
670.806	21110.85
670.992	19514.2
671.178	17689.71
671.365	15872.29
671.551	14424
671.738	12754.94
671.924	11762.33
672.11	11024.06
672.297	11110.6
672.483	10813.88
672.669	10990.5
672.855	10879.23
673.042	11237.77
673.228	12046.69
673.414	12936.86
673.6	13915.33
673.786	14881.45
673.973	16045.37
674.159	17022.09
674.345	18021.76
674.531	19129.17
674.717	19962.82
674.903	21204.46
675.089	21774.94
675.275	21285.7
675.461	20616.31
675.647	20517.4
675.833	20743.48
676.019	20960.72
676.205	20702.85
676.391	20978.38
676.577	20812.36
676.763	21381.08
676.949	22126.42
677.134	21969.22
677.32	20446.76
677.506	19643.13
677.692	19659.03
677.878	20911.27
678.064	20902.44
678.249	19056.75
678.435	16433.94
678.621	14441.66
678.806	12712.55
678.992	11502.7
679.178	10541.88
679.363	9770.05
679.549	8985.86
679.735	8023.28
679.92	7074.82
680.106	6389.54
680.291	5368.67
680.477	5100.21
680.663	4759.33
680.848	4476.74
681.034	4459.08
681.219	4316.01
681.404	4372.53
681.59	4338.97
681.775	4519.13
681.961	4637.46
682.146	5174.39
682.332	5181.45
682.517	5562.95
682.702	6069.85
682.888	6186.42
683.073	6567.92
683.258	6949.42
683.443	7094.25
683.629	7223.19
683.814	6995.35
683.999	6804.6
684.184	6783.4
684.37	6859.35
684.555	6719.82
684.74	6919.4
684.925	6894.67
685.11	6778.1
685.295	6915.87
685.48	7106.62
685.665	7097.79
685.85	6873.48
686.035	6416.03
686.22	6513.17
686.405	6594.42
686.59	6892.91
686.775	6463.72
686.96	5697.19
687.145	5068.42
687.33	4324.84
687.515	3886.83
687.7	3521.22
687.885	3265.12
688.07	3000.19
688.254	2691.11
688.439	2348.46
688.624	2074.7
688.809	1800.94
688.993	1516.58
689.178	1355.86
689.363	1322.3
689.548	1177.47
689.732	1246.35
689.917	1149.21
690.102	1119.18
690.286	1023.81
690.471	912.54
690.655	961.99
690.84	951.4
691.025	958.46
691.209	1140.38
691.394	1062.67
691.578	1066.2
691.763	923.14
691.947	1057.37
692.132	1082.09
692.316	1025.58
692.5	1037.94
692.685	1085.63
692.869	1120.95
693.054	1112.12
693.238	1271.08
693.422	1140.38
693.607	1262.25
693.791	1258.71
693.975	1138.61
694.159	1175.7
694.344	1166.87
694.528	1258.71
694.712	1108.59
694.896	1066.2
695.081	1082.09
695.265	1045
695.449	1027.34
695.633	1052.07
695.817	1034.41
696.001	949.63
696.185	921.37
696.369	877.21
696.553	1009.68
696.737	997.32
696.921	933.73
697.105	1075.03
697.289	1037.94
697.473	928.43
697.657	984.95
697.841	1020.28
698.025	1030.87
698.209	1062.67
698.393	1043.24
698.577	1120.95
698.76	1173.94
698.944	1112.12
699.128	1128.02
699.312	1241.05
699.496	1364.69
699.679	1331.13
699.863	1308.17
700.047	1417.67
700.23	1400.01
700.414	1461.83
700.598	1357.62
700.781	1546.61
700.965	1460.06
701.149	1521.88
701.332	1564.27
701.516	1645.51
701.699	1511.28
701.883	1555.44
702.066	1520.11
702.25	1502.45
702.433	1338.19
702.617	1454.76
702.8	1306.4
702.984	1514.81
703.167	1361.15
703.35	1392.95
703.534	1271.08
703.717	1359.39
703.901	1371.75
704.084	1329.36
704.267	1299.34
704.45	1317
704.634	1322.3
704.817	1394.71
705	1447.7
705.183	1405.31
705.367	1315.23
705.55	1320.53
705.733	1329.36
705.916	1285.21
706.099	1260.48
706.282	1327.6
706.465	1320.53
706.649	1331.13
706.832	1334.66
707.015	1233.99
707.198	1087.39
707.381	1239.29
707.564	1251.65
707.747	1288.74
707.93	1318.77
708.113	1317
708.295	1371.75
708.478	1391.18
708.661	1481.26
708.844	1590.76
709.027	1484.79
709.21	1641.98
709.393	1723.23
709.575	1806.24
709.758	1846.86
709.941	2016.42
710.124	2141.82
710.306	2348.46
710.489	2442.07
710.672	2590.43
710.854	2731.73
711.037	2931.31
711.22	3180.34
711.402	3349.9
711.585	3265.12
711.768	3484.13
711.95	3570.68
712.133	3764.96
712.315	3517.69
712.498	3666.05
712.68	3500.03
712.863	3501.79
713.045	3485.9
713.228	3719.04
713.41	3641.32
713.592	3752.59
713.775	3480.6
713.957	3724.34
714.139	3971.6
714.322	3812.65
714.504	3577.74
714.686	3498.26
714.869	3443.51
715.051	3545.95
715.233	3752.59
715.415	3752.59
715.598	3401.12
715.78	3183.88
715.962	3016.09
716.144	2708.77
716.326	2489.76
716.509	2565.71
716.691	2473.86
716.873	2366.12
717.055	2297.24
717.237	2336.1
717.419	2016.42
717.601	2140.05
717.783	1995.22
717.965	2104.73
718.147	2060.57
718.329	2159.48
718.511	2281.35
718.693	2300.78
718.875	2291.94
719.056	2495.06
719.238	2696.4
719.42	2648.72
719.602	2947.21
719.784	3222.73
719.966	3401.12
720.147	3713.74
720.329	3839.14
720.511	4241.83
720.692	4704.58
720.874	5130.23
721.056	5268
721.238	5801.39
721.419	6423.1
721.601	6997.11
721.782	7399.81
721.964	8182.23
722.146	8286.44
722.327	8664.41
722.509	9238.42
722.69	9422.11
722.872	9752.39
723.053	9547.51
723.235	9238.42
723.416	9058.27
723.598	9033.54
723.779	9468.03
723.96	9637.59
724.142	9863.66
724.323	9586.37
724.504	9619.92
724.686	9692.34
724.867	10314.04
725.048	10515.39
725.23	10225.73
725.411	9471.56
725.592	9243.72
725.773	9028.25
725.955	9549.28
726.136	10061.48
726.317	10093.27
726.498	9093.6
726.679	8229.92
726.86	7408.64
727.041	6799.3
727.223	6242.94
727.404	5898.53
727.585	5760.77
727.766	5836.72
727.947	5571.78
728.128	5186.75
728.309	4722.24
728.49	4600.37
728.671	4425.52
728.851	4158.82
729.032	3902.72
729.213	4084.64
729.394	4174.72
729.575	4278.92
729.756	4423.75
729.937	4526.19
730.117	4739.9
730.298	4923.59
730.479	5080.78
730.66	5287.43
730.84	5578.85
731.021	5962.12
731.202	6322.42
731.382	6831.09
731.563	7034.2
731.744	8055.07
731.924	8159.27
732.105	8823.37
732.286	9579.3
732.466	10584.27
732.647	11197.14
732.827	11723.47
733.008	12595.98
733.188	13253.01
733.369	13867.65
733.549	14358.65
733.73	14628.88
733.91	15245.28
734.09	15209.96
734.271	14888.51
734.451	14095.49
734.631	14046.03
734.812	13938.29
734.992	14429.3
735.172	14512.31
735.353	15224.09
735.533	14955.63
735.713	14252.68
735.893	14713.66
736.074	15096.92
736.254	16004.75
736.434	15227.62
736.614	14289.77
736.794	13459.65
736.974	13058.72
737.154	13265.37
737.335	14180.26
737.515	14575.89
737.695	13973.62
737.875	12120.87
738.055	10534.82
738.235	9307.31
738.415	8445.4
738.595	8014.45
738.775	7334.46
738.954	7106.62
739.134	6829.32
739.314	6652.7
739.494	6140.5
739.674	5693.65
739.854	5071.95
740.034	4568.58
740.213	4278.92
740.393	4093.47
740.573	4174.72
740.753	4210.04
740.932	4264.79
741.112	4342.51
741.292	4497.93
741.471	4732.84
741.651	4965.98
741.831	5179.69
742.01	5388.1
742.19	5638.9
742.37	6234.11
742.549	6640.34
742.729	6732.18
742.908	7129.58
743.088	7654.14
743.267	8125.72
743.447	8791.57
743.626	9367.36
743.805	9770.05
743.985	10782.09
744.164	11508
744.344	12138.53
744.523	12857.38
744.702	13401.37
744.882	13934.76
745.061	14454.02
745.24	14828.46
745.42	15626.78
745.599	15662.11
745.778	15367.15
745.957	14545.87
746.137	14280.94
746.316	14263.27
746.495	14270.34
746.674	14570.59
746.853	15054.53
747.032	15345.96
747.211	15008.61
747.39	14404.57
747.569	14590.02
747.749	15545.54
747.928	16107.19
748.107	15434.27
748.286	14302.13
748.464	13249.47
748.643	13011.04
748.822	13154.1
749.001	14021.3
749.18	14784.31
749.359	14434.6
749.538	12262.17
749.717	10734.4
749.896	9605.79
750.074	8825.13
750.253	8297.04
750.432	7832.53
750.611	7302.66
750.789	7203.76
750.968	6997.11
751.147	6582.05
751.325	6016.87
751.504	5472.88
751.683	4957.15
751.861	4427.28
752.04	4028.12
752.219	3692.54
752.397	3674.88
752.576	3678.41
752.754	3766.72
752.933	3726.1
753.111	3890.36
753.29	3888.59
753.468	3961.01
753.647	4128.8
753.825	4268.33
754.003	4416.69
754.182	4526.19
754.36	4999.53
754.539	5193.82
754.717	5520.57
754.895	5887.94
755.074	6384.24
755.252	6864.65
755.43	7406.87
755.608	7564.06
755.787	8277.61
755.965	9086.53
756.143	9711.77
756.321	9983.76
756.499	10760.89
756.677	11446.18
756.856	11613.97
757.034	11725.24
757.212	12461.75
757.39	13171.76
757.568	13800.53
757.746	13182.36
757.924	13000.44
758.102	12634.83
758.28	12873.27
758.458	12749.64
758.636	13214.15
758.814	13298.93
758.992	13699.86
759.169	13744.01
759.347	13653.93
759.525	13321.89
759.703	14042.5
759.881	14673.03
760.059	15144.61
760.236	14088.42
760.414	13117.01
760.592	12329.28
760.77	12133.23
760.947	12223.31
761.125	13221.21
761.303	14081.36
761.48	13560.33
761.658	11753.5
761.835	10243.39
762.013	9005.29
762.191	8614.95
762.368	8026.81
762.546	7648.84
762.723	7269.11
762.901	7023.6
763.078	6659.77
763.256	6530.83
763.433	6133.44
763.611	5916.19
763.788	5156.73
763.965	4964.21
764.143	4480.27
764.32	4068.75
764.497	3844.44
764.675	3849.74
764.852	3985.73
765.029	3976.9
765.207	3772.02
765.384	3991.03
765.561	3938.05
765.738	4213.57
765.915	4277.16
766.093	4446.71
766.27	4482.04
766.447	4632.16
766.624	5080.78
766.801	5253.87
766.978	5585.91
767.155	5730.74
767.332	6108.71
767.509	6481.38
767.686	7009.48
767.863	7398.04
768.04	7862.55
768.217	8355.32
768.394	9234.89
768.571	9865.43
768.748	10508.33
768.925	11073.51
769.102	11442.65
769.279	11921.29
769.455	12117.34
769.632	12880.34
769.809	13275.97
769.986	14014.24
770.163	13781.1
770.339	13157.63
770.516	12638.37
770.693	12754.94
770.869	12671.93
771.046	13025.17
771.223	13300.69
771.399	13532.07
771.576	13837.62
771.752	13925.93
771.929	13311.29
772.106	13219.45
772.282	13809.36
772.459	14554.7
772.635	14733.09
772.812	13705.15
772.988	12528.86
773.165	12177.39
773.341	11762.33
773.517	12230.37
773.694	12977.48
773.87	13565.62
774.046	13205.32
774.223	11854.17
774.399	10010.26
774.575	8614.95
774.752	7979.12
774.928	7495.18
775.104	6947.66
775.28	6707.45
775.457	6158.16
775.633	5674.22
775.809	5128.47
775.985	4897.1
776.161	4515.59
776.337	4088.17
776.513	3397.59
776.69	3065.54
776.866	2493.29
777.042	2185.97
777.218	1898.08
777.394	1765.62
777.57	1617.25
777.746	1500.68
777.922	1347.02
778.097	1438.87
778.273	1182.77
778.449	1221.62
778.625	1004.38
778.801	1184.53
778.977	1064.43
779.153	909.01
779.328	939.03
779.504	1066.2
779.68	983.19
779.856	1075.03
780.031	979.65
780.207	1080.33
780.383	999.08
780.559	1112.12
780.734	988.49
780.91	1067.96
781.085	1172.17
781.261	1149.21
781.437	1421.21
781.612	1225.16
781.788	1299.34
781.963	1306.4
782.139	1347.02
782.314	1539.54
782.49	1421.21
782.665	1415.91
782.841	1546.61
783.016	1626.09
783.191	1560.74
783.367	1652.58
783.542	1505.98
783.717	1649.05
783.893	1645.51
784.068	1670.24
784.243	1687.9
784.419	1641.98
784.594	1587.23
784.769	1553.67
784.944	1597.83
785.12	1475.96
785.295	1544.84
785.47	1491.85
785.645	1497.15
785.82	1472.43
785.995	1373.52
786.17	1424.74
786.345	1521.88
786.52	1352.32
786.695	1396.48
786.87	1332.9
787.045	1301.1
787.22	1290.51
787.395	1156.27
787.57	1159.81
787.745	1092.69
787.92	1186.3
788.095	1103.29
788.27	1181
788.445	984.95
788.619	1007.91
788.794	825.99
788.969	804.8
789.144	804.8
789.319	739.45
789.493	654.67
789.668	645.84
789.843	727.09
790.017	670.57
790.192	442.73
790.367	456.86
790.541	470.99
790.716	455.09
790.89	423.3
791.065	336.76
791.24	365.02
791.414	485.12
791.589	322.63
791.763	317.33
791.938	357.95
792.112	375.61
792.286	262.58
792.461	227.25
792.635	264.34
792.81	319.09
792.984	373.85
793.158	352.65
793.333	267.87
793.507	347.35
793.681	267.87
793.856	331.46
794.03	278.47
794.204	345.59
794.378	338.52
794.552	334.99
794.727	345.59
794.901	400.34
795.075	342.05
795.249	317.33
795.423	428.6
795.597	472.75
795.771	442.73
795.945	516.91
796.119	504.55
796.293	502.78
796.467	529.27
796.641	654.67
796.815	546.93
796.989	693.53
797.163	610.52
797.337	758.88
797.511	690
797.685	718.26
797.859	720.02
798.032	774.77
798.206	781.84
798.38	803.03
798.554	781.84
798.727	734.15
798.901	725.32
799.075	852.49
799.249	916.07
799.422	884.28
799.596	882.51
799.77	848.96
799.943	947.86
800.117	848.96
800.29	921.37
800.464	963.76
800.637	847.19
800.811	893.11
800.985	878.98
801.158	951.4
801.331	799.5
801.505	977.89
801.678	905.47
801.852	937.27
802.025	894.88
802.199	875.45
802.372	739.45
802.545	762.41
802.719	852.49
802.892	817.16
803.065	769.48
803.238	863.09
803.412	741.22
803.585	778.31
803.758	633.48
803.931	575.19
804.104	585.79
804.278	522.21
804.451	773.01
804.624	548.7
804.797	569.9
804.97	501.01
805.143	465.69
805.316	548.7
805.489	481.58
805.662	495.71
805.835	292.6
806.008	504.55
806.181	400.34
806.354	359.72
806.527	303.2
806.7	350.89
806.873	308.5
807.045	234.32
807.218	359.72
807.391	292.6
807.564	340.29
807.737	403.87
807.909	299.67
808.082	338.52
808.255	223.72
808.428	303.2
808.6	260.81
808.773	326.16
808.946	324.39
809.118	209.59
809.291	264.34
809.463	250.21
809.636	313.8
809.809	239.62
809.981	276.71
810.154	276.71
810.326	255.51
810.499	329.69
810.671	239.62
810.843	292.6
811.016	176.03
811.188	334.99
811.361	301.43
811.533	384.44
811.705	181.33
811.878	278.47
812.05	326.16
812.222	290.83
812.395	223.72
812.567	234.32
812.739	209.59
812.911	345.59
813.083	331.46
813.256	156.6
813.428	236.08
813.6	340.29
813.772	204.29
813.944	303.2
814.116	264.34
814.288	297.9
814.46	257.28
814.632	317.33
814.804	267.87
814.976	220.19
815.148	243.15
815.32	241.38
815.492	349.12
815.664	299.67
815.836	274.94
816.008	234.32
816.18	229.02
816.352	287.3
816.523	283.77
816.695	260.81
816.867	250.21
817.039	283.77
817.21	326.16
817.382	271.41
817.554	207.82
817.726	290.83
817.897	211.36
818.069	207.82
818.241	248.45
818.412	177.8
818.584	193.69
818.755	253.74
818.927	290.83
819.098	172.5
819.27	366.78
819.441	273.17
819.613	207.82
819.784	105.38
819.956	153.07
820.127	204.29
820.299	209.59
820.47	255.51
820.641	130.11
820.813	188.4
820.984	193.69
821.155	181.33
821.327	112.45
821.498	146.01
821.669	191.93
821.84	153.07
822.012	181.33
822.183	207.82
822.354	181.33
822.525	151.3
822.696	103.62
822.867	75.36
823.039	103.62
823.21	93.02
823.381	110.68
823.552	160.14
823.723	202.52
823.894	57.7
824.065	133.64
824.236	57.7
824.407	100.08
824.578	209.59
824.749	98.32
824.919	87.72
825.09	168.97
825.261	31.2
825.432	22.37
825.603	140.71
825.774	82.42
825.944	161.9
826.115	89.49
826.286	158.37
826.457	130.11
826.627	138.94
826.798	137.18
826.969	220.19
827.139	251.98
827.31	138.94
827.481	71.83
827.651	93.02
827.822	126.58
827.992	177.8
828.163	280.24
828.333	140.71
828.504	151.3
828.674	225.49
828.845	6.48
829.015	206.06
829.186	168.97
829.356	188.4
829.527	236.08
829.697	186.63
829.867	98.32
830.038	243.15
830.208	213.12
830.378	202.52
830.548	202.52
830.719	338.52
830.889	216.65
831.059	207.82
831.229	146.01
831.399	304.96
831.57	246.68
831.74	230.78
831.91	184.86
832.08	237.85
832.25	218.42
832.42	204.29
832.59	82.42
832.76	161.9
832.93	230.78
833.1	289.07
833.27	168.97
833.44	234.32
833.61	168.97
833.78	195.46
833.95	84.19
834.12	232.55
834.29	207.82
834.459	193.69
834.629	174.27
834.799	73.59
834.969	211.36
835.139	156.6
835.308	121.28
835.478	146.01
835.648	202.52
835.817	176.03
835.987	211.36
836.157	151.3
836.326	124.81
836.496	138.94
836.665	126.58
836.835	77.12
837.005	75.36
837.174	128.34
837.344	110.68
837.513	112.45
837.683	123.05
837.852	146.01
838.021	87.72
838.191	170.73
838.36	-0.59
838.53	82.42
838.699	135.41
838.868	142.47
839.038	41.8
839.207	112.45
839.376	93.02
839.546	144.24
839.715	126.58
839.884	17.07
840.053	84.19
840.222	91.25
840.392	29.44
840.561	-35.91
840.73	40.03
840.899	73.59
841.068	105.38
841.237	62.99
841.406	105.38
841.575	146.01
841.744	22.37
841.913	62.99
842.082	55.93
842.251	24.14
842.42	-9.42
842.589	158.37
842.758	70.06
842.927	59.46
843.096	-44.74
843.264	107.15
843.433	110.68
843.602	55.93
843.771	142.47
843.94	202.52
844.108	62.99
844.277	96.55
844.446	190.16
844.614	190.16
844.783	96.55
844.952	126.58
845.12	191.93
845.289	147.77
845.458	214.89
845.626	131.88
845.795	197.23
845.963	161.9
846.132	267.87
846.3	191.93
846.469	276.71
846.637	264.34
846.806	278.47
846.974	214.89
847.142	363.25
847.311	303.2
847.479	294.37
847.648	280.24
847.816	308.5
847.984	361.48
848.152	338.52
848.321	266.11
848.489	435.66
848.657	386.21
848.825	285.54
848.994	423.3
849.162	220.19
849.33	319.09
849.498	322.63
849.666	283.77
849.834	387.98
850.002	278.47
850.17	455.09
850.338	326.16
850.506	282
850.674	331.46
850.842	357.95
851.01	425.07
851.178	327.93
851.346	412.7
851.514	324.39
851.682	333.22
851.85	359.72
852.018	350.89
852.186	453.33
852.353	324.39
852.521	334.99
852.689	387.98
852.857	375.61
853.024	338.52
853.192	274.94
853.36	350.89
853.527	370.31
853.695	398.57
853.863	338.52
854.03	292.6
854.198	347.35
854.366	333.22
854.533	262.58
854.701	221.95
854.868	297.9
855.036	229.02
855.203	285.54
855.371	197.23
855.538	220.19
855.705	260.81
855.873	209.59
856.04	202.52
856.208	151.3
856.375	229.02
856.542	101.85
856.71	255.51
856.877	209.59
857.044	234.32
857.211	191.93
857.379	206.06
857.546	119.51
857.713	174.27
857.88	161.9
858.047	165.43
858.214	140.71
858.381	70.06
858.549	89.49
858.716	190.16
858.883	195.46
859.05	144.24
859.217	218.42
859.384	213.12
859.551	183.1
859.718	135.41
859.885	276.71
860.052	165.43
860.218	115.98
860.385	183.1
860.552	172.5
860.719	310.26
860.886	251.98
861.053	255.51
861.219	264.34
861.386	184.86
861.553	229.02
861.72	290.83
861.886	331.46
862.053	336.76
862.22	370.31
862.386	365.02
862.553	317.33
862.72	313.8
862.886	315.56
863.053	382.68
863.219	354.42
863.386	405.64
863.552	463.92
863.719	531.04
863.885	472.75
864.052	497.48
864.218	470.99
864.385	580.49
864.551	543.4
864.717	621.12
864.884	502.78
865.05	665.27
865.216	635.24
865.383	741.22
865.549	716.49
865.715	765.94
865.881	833.06
866.048	854.25
866.214	755.35
866.38	887.81
866.546	817.16
866.712	878.98
866.878	825.99
867.045	956.69
867.211	912.54
867.377	1014.98
867.543	969.06
867.709	857.79
867.875	926.67
868.041	893.11
868.207	877.21
868.373	981.42
868.539	866.62
868.705	1020.28
868.87	901.94
869.036	921.37
869.202	939.03
869.368	969.06
869.534	817.16
869.7	848.96
869.865	778.31
870.031	840.12
870.197	875.45
870.363	806.57
870.528	804.8
870.694	942.56
870.86	903.71
871.025	868.38
871.191	769.48
871.356	769.48
871.522	778.31
871.688	847.19
871.853	776.54
872.019	737.68
872.184	659.97
872.35	663.5
872.515	720.02
872.68	624.65
872.846	714.72
873.011	608.75
873.177	603.45
873.342	568.13
873.507	470.99
873.673	437.43
873.838	525.74
874.003	414.47
874.169	379.15
874.334	340.29
874.499	313.8
874.664	336.76
874.829	326.16
874.995	357.95
875.16	257.28
875.325	357.95
875.49	280.24
875.655	211.36
875.82	304.96
875.985	153.07
876.15	184.86
876.315	230.78
876.48	80.66
876.645	144.24
876.81	131.88
876.975	147.77
877.14	184.86
877.305	170.73
877.47	146.01
877.635	61.23
877.799	84.19
877.964	91.25
878.129	257.28
878.294	75.36
878.459	103.62
878.623	165.43
878.788	172.5
878.953	107.15
879.117	188.4
879.282	177.8
879.447	177.8
879.611	167.2
879.776	52.4
879.941	198.99
880.105	200.76
880.27	282
880.434	259.04
880.599	290.83
880.763	183.1
880.928	220.19
881.092	239.62
881.257	248.45
881.421	229.02
881.585	380.91
881.75	264.34
881.914	282
882.078	331.46
882.243	357.95
882.407	306.73
882.571	290.83
882.735	363.25
882.9	416.24
883.064	365.02
883.228	393.27
883.392	416.24
883.556	513.38
883.721	504.55
883.885	608.75
884.049	439.2
884.213	543.4
884.377	428.6
884.541	545.17
884.705	554
884.869	617.58
885.033	501.01
885.197	591.09
885.361	649.37
885.525	742.98
885.689	640.54
885.852	744.75
886.016	615.82
886.18	737.68
886.344	603.45
886.508	637.01
886.672	665.27
886.835	652.91
886.999	661.74
887.163	640.54
887.326	624.65
887.49	561.06
887.654	594.62
887.817	750.05
887.981	629.95
888.145	548.7
888.308	566.36
888.472	582.26
888.635	617.58
888.799	645.84
888.962	594.62
889.126	610.52
889.289	513.38
889.453	566.36
889.616	562.83
889.78	617.58
889.943	548.7
890.106	661.74
890.27	585.79
890.433	548.7
890.596	545.17
890.76	538.1
890.923	598.15
891.086	405.64
891.249	559.3
891.413	479.82
891.576	465.69
891.739	460.39
891.902	372.08
892.065	444.49
892.228	363.25
892.391	472.75
892.554	387.98
892.717	400.34
892.88	497.48
893.044	308.5
893.206	342.05
893.369	179.56
893.532	156.6
893.695	181.33
893.858	149.54
894.021	131.88
894.184	163.67
894.347	229.02
894.51	181.33
894.673	176.03
894.835	68.29
894.998	126.58
895.161	177.8
895.324	117.75
895.486	70.06
895.649	103.62
895.812	27.67
895.974	41.8
896.137	32.97
896.3	-46.51
896.462	22.37
896.625	48.86
896.787	10.01
896.95	75.36
897.112	50.63
897.275	87.72
897.437	70.06
897.6	-12.95
897.762	-69.47
897.925	84.19
898.087	25.9
898.249	24.14
898.412	2.94
898.574	-7.65
898.736	38.27
898.899	-16.48
899.061	-30.61
899.223	78.89
899.385	13.54
899.548	-16.48
899.71	-16.48
899.872	-41.21
900.034	101.85
900.196	13.54
900.358	61.23
900.521	93.02
900.683	10.01
900.845	32.97
901.007	13.54
901.169	96.55
901.331	96.55
901.493	96.55
