Data from FLMT043001_09-37-44-257.txt Node
Date: Wed Sep 13 09:37:44 AWST 2023
User: vk1team
Spectrometer: FLMT04300
Trigger mode: 0
Integration Time (sec): 5.000000E-1
Scans to average: 1
Electric dark correction enabled: true
Nonlinearity correction enabled: false
Boxcar width: 0
XAxis mode: Wavelengths
Number of Pixels in Spectrum: 3648
>>>>>Begin Spectral Data<<<<<
195.236	-785.96
195.457	-785.96
195.678	-785.96
195.899	-690.59
196.119	111.27
196.34	86.54
196.561	-38.86
196.782	-118.34
197.002	-3.53
197.223	143.06
197.444	63.58
197.664	60.05
197.885	-63.58
198.106	-28.26
198.326	-84.78
198.547	-114.8
198.768	98.91
198.988	83.01
199.209	-178.39
199.429	-8.83
199.65	-234.91
199.871	217.24
200.091	-75.95
200.312	75.95
200.532	-40.62
200.753	111.27
200.973	-79.48
201.194	275.53
201.414	199.58
201.635	211.94
201.855	-12.36
202.076	-97.14
202.296	-58.28
202.516	229.61
202.737	5.3
202.957	-3.53
203.178	282.59
203.398	100.67
203.618	236.67
203.839	-47.69
204.059	-17.66
204.279	-118.34
204.5	-166.02
204.72	123.63
204.94	-70.65
205.16	173.09
205.381	0
205.601	42.39
205.821	215.48
206.041	40.62
206.262	162.49
206.482	121.87
206.702	90.08
206.922	-24.73
207.142	-75.95
207.362	199.58
207.583	-183.69
207.803	75.95
208.023	-49.45
208.243	113.04
208.463	24.73
208.683	174.85
208.903	143.06
209.123	-111.27
209.343	44.16
209.563	-24.73
209.783	125.4
210.003	24.73
210.223	105.97
210.443	187.22
210.663	-180.15
210.883	86.54
211.103	-109.5
211.323	58.28
211.543	52.99
211.763	155.43
211.983	257.87
212.202	169.56
212.422	7.06
212.642	-7.06
212.862	97.14
213.082	137.76
213.302	61.82
213.521	143.06
213.741	-30.03
213.961	270.23
214.181	127.17
214.4	249.03
214.62	-14.13
214.84	86.54
215.06	148.36
215.279	-8.83
215.499	60.05
215.719	68.88
215.938	88.31
216.158	-47.69
216.377	220.78
216.597	296.72
216.817	-83.01
217.036	-70.65
217.256	158.96
217.475	-49.45
217.695	157.19
217.914	197.81
218.134	-118.34
218.354	-56.52
218.573	75.95
218.793	317.92
219.012	231.37
219.231	70.65
219.451	19.43
219.67	-22.96
219.89	75.95
220.109	263.16
220.329	-97.14
220.548	164.26
220.767	-100.67
220.987	128.93
221.206	-21.19
221.425	49.45
221.645	286.13
221.864	118.34
222.083	42.39
222.303	196.05
222.522	83.01
222.741	240.2
222.96	358.54
223.18	-58.28
223.399	277.29
223.618	174.85
223.837	-174.85
224.056	30.03
224.276	277.29
224.495	173.09
224.714	185.45
224.933	162.49
225.152	233.14
225.371	190.75
225.59	-7.06
225.809	-24.73
226.028	-15.9
226.248	-125.4
226.467	-181.92
226.686	164.26
226.905	173.09
227.124	188.98
227.343	137.76
227.562	166.02
227.781	-24.73
228	151.89
228.218	-121.87
228.437	-24.73
228.656	148.36
228.875	31.79
229.094	-211.94
229.313	234.91
229.532	45.92
229.751	139.53
229.97	70.65
230.188	-44.16
230.407	102.44
230.626	120.1
230.845	-68.88
231.064	-93.61
231.282	-111.27
231.501	63.58
231.72	65.35
231.939	219.01
232.157	284.36
232.376	74.18
232.595	-114.8
232.813	102.44
233.032	-15.9
233.251	67.12
233.469	247.27
233.688	196.05
233.907	-21.19
234.125	273.76
234.344	123.63
234.562	178.39
234.781	181.92
234.999	153.66
235.218	-199.58
235.436	116.57
235.655	56.52
235.873	146.59
236.092	19.43
236.31	231.37
236.529	-49.45
236.747	-44.16
236.966	188.98
237.184	-33.56
237.403	114.8
237.621	263.16
237.839	-1.77
238.058	167.79
238.276	-49.45
238.494	-180.15
238.713	-42.39
238.931	-125.4
239.149	259.63
239.368	-1.77
239.586	201.35
239.804	294.96
240.022	42.39
240.241	61.82
240.459	79.48
240.677	-60.05
240.895	97.14
241.113	143.06
241.332	58.28
241.55	272
241.768	-250.8
241.986	181.92
242.204	197.81
242.422	0
242.64	381.5
242.859	155.43
243.077	-128.93
243.295	61.82
243.513	44.16
243.731	75.95
243.949	-65.35
244.167	37.09
244.385	-210.18
244.603	74.18
244.821	305.55
245.039	33.56
245.257	303.79
245.475	148.36
245.692	123.63
245.91	144.83
246.128	107.74
246.346	132.47
246.564	136
246.782	-21.19
247	197.81
247.218	14.13
247.435	312.62
247.653	-194.28
247.871	277.29
248.089	143.06
248.306	-58.28
248.524	-166.02
248.742	208.41
248.96	95.38
249.177	-77.71
249.395	393.86
249.613	-102.44
249.83	-197.81
250.048	14.13
250.266	61.82
250.483	75.95
250.701	190.75
250.919	40.62
251.136	26.49
251.354	136
251.571	153.66
251.789	-26.49
252.006	181.92
252.224	75.95
252.441	-84.78
252.659	-22.96
252.876	-137.76
253.094	111.27
253.311	241.97
253.529	-118.34
253.746	40.62
253.964	56.52
254.181	245.5
254.399	10.6
254.616	187.22
254.833	-111.27
255.051	203.11
255.268	-26.49
255.485	187.22
255.703	208.41
255.92	-67.12
256.137	153.66
256.355	151.89
256.572	-63.58
256.789	-63.58
257.006	236.67
257.224	-30.03
257.441	95.38
257.658	40.62
257.875	-167.79
258.092	-7.06
258.31	213.71
258.527	166.02
258.744	188.98
258.961	21.19
259.178	266.7
259.395	35.32
259.612	-7.06
259.829	188.98
260.046	-19.43
260.263	298.49
260.48	153.66
260.698	-33.56
260.915	160.72
261.132	31.79
261.349	49.45
261.565	-47.69
261.782	137.76
261.999	-104.21
262.216	-14.13
262.433	61.82
262.65	-28.26
262.867	14.13
263.084	-120.1
263.301	-47.69
263.518	206.65
263.734	19.43
263.951	26.49
264.168	178.39
264.385	321.45
264.602	81.25
264.818	294.96
265.035	-72.41
265.252	-3.53
265.469	-81.25
265.685	120.1
265.902	238.44
266.119	-143.06
266.336	56.52
266.552	81.25
266.769	231.37
266.986	47.69
267.202	309.09
267.419	224.31
267.635	-88.31
267.852	178.39
268.069	33.56
268.285	-121.87
268.502	1.77
268.718	183.69
268.935	3.53
269.151	-44.16
269.368	-8.83
269.584	127.17
269.801	217.24
270.017	81.25
270.234	12.36
270.45	206.65
270.666	68.88
270.883	-65.35
271.099	194.28
271.316	104.21
271.532	60.05
271.748	-47.69
271.965	471.58
272.181	3.53
272.397	125.4
272.614	84.78
272.83	60.05
273.046	188.98
273.263	17.66
273.479	227.84
273.695	5.3
273.911	56.52
274.127	65.35
274.344	275.53
274.56	-144.83
274.776	330.28
274.992	-40.62
275.208	310.85
275.424	203.11
275.641	250.8
275.857	277.29
276.073	342.64
276.289	33.56
276.505	234.91
276.721	215.48
276.937	243.74
277.153	91.84
277.369	227.84
277.585	151.89
277.801	385.03
278.017	49.45
278.233	150.13
278.449	95.38
278.665	268.46
278.881	264.93
279.097	30.03
279.313	127.17
279.528	388.56
279.744	386.8
279.96	395.63
280.176	385.03
280.392	743.57
280.608	648.2
280.823	662.33
281.039	591.68
281.255	469.81
281.471	851.31
281.687	704.72
281.902	676.46
282.118	750.64
282.334	992.61
282.549	706.48
282.765	909.6
282.981	828.35
283.196	745.34
283.412	611.11
283.628	672.92
283.843	849.54
284.059	879.57
284.274	614.64
284.49	876.04
284.706	794.79
284.921	649.96
285.137	890.17
285.352	1089.75
285.568	874.27
285.783	784.19
285.999	846.01
286.214	916.66
286.43	759.47
286.645	817.75
286.861	800.09
287.076	888.4
287.291	849.54
287.507	1038.53
287.722	955.52
287.938	1109.18
288.153	909.6
288.368	1126.84
288.584	976.71
288.799	1162.16
289.014	1149.8
289.229	1291.1
289.445	964.35
289.66	985.54
289.875	1042.06
290.09	1082.68
290.306	800.09
290.521	1027.93
290.736	755.94
290.951	879.57
291.166	939.62
291.382	1183.36
291.597	854.84
291.812	881.34
292.027	819.52
292.242	747.1
292.457	1038.53
292.672	824.82
292.887	1026.16
293.102	715.31
293.317	824.82
293.532	959.05
293.747	895.47
293.962	932.56
294.177	625.24
294.392	1043.83
294.607	909.6
294.822	927.26
295.037	715.31
295.252	936.09
295.467	902.53
295.682	828.35
295.897	868.97
296.112	883.1
296.326	1271.67
296.541	870.74
296.756	833.65
296.971	771.83
297.186	899
297.4	913.13
297.615	741.81
297.83	867.21
298.045	943.15
298.259	1151.57
298.474	840.71
298.689	1139.2
298.903	944.92
299.118	893.7
299.333	1082.68
299.547	1125.07
299.762	1066.79
299.977	1093.28
300.191	1116.24
300.406	1338.78
300.62	1299.93
300.835	1181.59
301.05	1192.19
301.264	1248.71
301.479	1197.49
301.693	1495.97
301.908	1310.52
302.122	1333.48
302.337	1495.97
302.551	1328.19
302.766	1344.08
302.98	1699.09
303.194	1711.45
303.409	1654.93
303.623	1789.16
303.838	1999.34
304.052	1805.06
304.266	2175.96
304.481	2331.39
304.695	2472.69
304.909	3375.22
305.124	5517.62
305.338	10259.88
305.552	16741.85
305.766	22867.04
305.981	26339.4
306.195	26770.35
306.409	24419.54
306.623	22831.72
306.837	23446.36
307.052	27287.85
307.266	31777.54
307.48	35274.63
307.694	37180.36
307.908	42019.76
308.122	46793.81
308.336	49363.64
308.55	47085.23
308.764	43104.21
308.979	39624.79
309.193	36493.31
309.407	33402.45
309.621	30493.51
309.835	28898.63
310.049	27353.2
310.263	25655.88
310.477	24742.75
310.69	23034.83
310.904	22028.1
311.118	22301.86
311.332	22211.78
311.546	22593.28
311.76	21876.2
311.974	21295.12
312.188	20397.89
312.402	19143.89
312.615	19041.45
312.829	18601.66
313.043	18382.65
313.257	17912.84
313.471	18151.28
313.684	18672.31
313.898	19002.59
314.112	18833.03
314.325	18184.84
314.539	17729.16
314.753	16717.12
314.967	16038.9
315.18	15092.21
315.394	14382.2
315.607	13776.39
315.821	13098.17
316.035	12716.67
316.248	11752.32
316.462	11273.68
316.675	10934.57
316.889	10298.74
317.103	9613.45
317.316	9647.01
317.53	9443.89
317.743	9108.31
317.957	8712.68
318.17	8334.72
318.384	8587.28
318.597	8172.23
318.81	7509.9
319.024	7485.17
319.237	7797.79
319.451	7714.78
319.664	7190.22
319.877	6776.92
320.091	7248.5
320.304	7310.32
320.517	6829.91
320.731	6303.58
320.944	5877.93
321.157	6126.96
321.371	6077.51
321.584	5452.27
321.797	5083.14
322.01	4887.09
322.223	5040.75
322.437	4754.62
322.65	4622.16
322.863	4094.06
323.076	4078.17
323.289	4288.34
323.502	4049.91
323.716	3931.57
323.929	3444.1
324.142	3189.76
324.355	3240.98
324.568	3376.98
324.781	3076.73
324.994	2723.49
325.207	2621.05
325.42	2781.77
325.633	2707.59
325.846	2670.5
326.059	2250.14
326.272	2319.03
326.485	2128.28
326.698	2175.96
326.911	2273.1
327.124	2310.19
327.336	1879.24
327.549	2073.52
327.762	1757.37
327.975	2039.97
328.188	2078.82
328.401	1782.1
328.613	1985.21
328.826	1541.9
329.039	2047.03
329.252	1921.63
329.465	1819.19
329.677	1750.31
329.89	1677.89
330.103	1630.21
330.315	1803.29
330.528	1847.45
330.741	1714.98
330.953	1607.25
331.166	1594.88
331.379	1617.84
331.591	1865.11
331.804	1580.75
332.017	1628.44
332.229	1467.72
332.442	1563.09
332.654	1570.16
332.867	1329.95
333.079	1391.77
333.292	1753.84
333.504	1776.8
333.717	1730.88
333.929	1359.98
334.142	1633.74
334.354	1628.44
334.566	1533.07
334.779	1495.97
334.991	1497.74
335.204	1550.73
335.416	1444.75
335.628	1223.98
335.841	1679.66
336.053	1365.28
336.265	1511.87
336.478	1388.24
336.69	1526
336.902	1450.05
337.114	1490.68
337.327	1266.37
337.539	1384.7
337.751	1432.39
337.963	1409.43
338.176	1591.35
338.388	1564.86
338.6	1407.66
338.812	1259.3
339.024	1709.69
339.236	1271.67
339.448	1335.25
339.66	1518.94
339.873	1412.96
340.085	1545.43
340.297	1552.49
340.509	1354.68
340.721	1598.41
340.933	1517.17
341.145	1538.36
341.357	1446.52
341.569	1439.46
341.781	1716.75
341.993	1877.47
342.204	1813.89
342.416	1895.14
342.628	1916.33
342.84	1799.76
343.052	1919.86
343.264	1732.65
343.476	1790.93
343.688	1681.43
343.899	1736.18
344.111	1566.62
344.323	1670.83
344.535	1543.66
344.746	1979.91
344.958	1782.1
345.17	1859.81
345.382	1752.07
345.593	1663.76
345.805	1925.16
346.017	1815.66
346.228	2024.07
346.44	1972.85
346.652	1911.03
346.863	2080.59
347.075	1637.27
347.286	1808.59
347.498	1798
347.71	1956.95
347.921	1741.48
348.133	1743.24
348.344	1881.01
348.556	1759.14
348.767	1820.96
348.979	1766.2
349.19	1877.47
349.402	1681.43
349.613	1739.71
349.825	1690.26
350.036	1644.34
350.247	1838.62
350.459	1697.32
350.67	1790.93
350.881	1550.73
351.093	1866.88
351.304	1709.69
351.515	1755.61
351.727	1695.56
351.938	1624.91
352.149	1614.31
352.361	1485.38
352.572	1900.44
352.783	1750.31
352.994	1630.21
353.205	1886.31
353.417	1776.8
353.628	1566.62
353.839	1732.65
354.05	1662
354.261	1658.47
354.472	1879.24
354.683	1923.4
354.895	1960.49
355.106	1769.74
355.317	1806.83
355.528	1683.19
355.739	1790.93
355.95	1554.26
356.161	1663.76
356.372	1538.36
356.583	1706.15
356.794	1755.61
357.005	1481.85
357.216	1607.25
357.427	1672.6
357.638	1639.04
357.848	1571.92
358.059	1559.56
358.27	1741.48
358.481	1912.8
358.692	1775.04
358.903	1748.54
359.114	1601.95
359.324	1487.14
359.535	1453.59
359.746	1610.78
359.957	1547.19
360.167	1506.57
360.378	1600.18
360.589	1556.03
360.8	1513.64
361.01	1397.07
361.221	1681.43
361.432	1692.02
361.642	1649.63
361.853	1586.05
362.063	1552.49
362.274	1584.29
362.485	1543.66
362.695	1480.08
362.906	1624.91
363.116	1580.75
363.327	1547.19
363.537	1501.27
363.748	1734.41
363.958	1859.81
364.169	1686.72
364.379	1541.9
364.59	1391.77
364.8	1681.43
365.011	1511.87
365.221	1538.36
365.431	1529.53
365.642	1757.37
365.852	1828.02
366.063	1676.13
366.273	1368.81
366.483	1829.79
366.694	1700.85
366.904	1414.73
367.114	1656.7
367.324	1736.18
367.535	1714.98
367.745	1538.36
367.955	1533.07
368.165	1674.36
368.375	1439.46
368.586	1587.82
368.796	1397.07
369.006	1478.31
369.216	1524.23
369.426	1499.51
369.636	1672.6
369.846	1400.6
370.057	1596.65
370.267	1577.22
370.477	1374.11
370.687	1450.05
370.897	1345.85
371.107	1739.71
371.317	1335.25
371.527	1695.56
371.737	1370.57
371.947	1451.82
372.157	1441.22
372.367	1382.94
372.576	1534.83
372.786	1266.37
372.996	1607.25
373.206	1421.79
373.416	1577.22
373.626	1843.92
373.836	1473.01
374.045	1377.64
374.255	1377.64
374.465	1405.9
374.675	1587.82
374.885	1554.26
375.094	1548.96
375.304	1390
375.514	1188.66
375.724	1640.8
375.933	1418.26
376.143	1589.58
376.353	1425.33
376.562	1639.04
376.772	1345.85
376.981	1167.46
377.191	1421.79
377.401	1488.91
377.61	1453.59
377.82	1374.11
378.029	1564.86
378.239	1554.26
378.448	1584.29
378.658	1573.69
378.867	1607.25
379.077	1405.9
379.286	1577.22
379.496	1317.59
379.705	1481.85
379.915	1423.56
380.124	1291.1
380.333	1381.17
380.543	1232.81
380.752	1213.38
380.962	1469.48
381.171	1591.35
381.38	1497.74
381.589	1349.38
381.799	1397.07
382.008	1213.38
382.217	1405.9
382.427	1273.43
382.636	1764.44
382.845	1337.02
383.054	1435.92
383.263	1587.82
383.473	1427.09
383.682	1333.48
383.891	1476.55
384.1	1352.91
384.309	1457.12
384.518	1209.85
384.727	1432.39
384.936	1503.04
385.146	1444.75
385.355	1600.18
385.564	1420.03
385.773	1351.15
385.982	1329.95
386.191	1423.56
386.4	1639.04
386.609	1259.3
386.818	1480.08
387.027	1342.32
387.235	1261.07
387.444	1312.29
387.653	1508.34
387.862	1593.12
388.071	1623.14
388.28	1292.86
388.489	1351.15
388.698	1420.03
388.906	1497.74
389.115	1375.87
389.324	1319.35
389.533	1278.73
389.741	1386.47
389.95	1276.97
390.159	1139.2
390.368	1294.63
390.576	1471.25
390.785	1144.5
390.994	1178.06
391.202	1352.91
391.411	1140.97
391.62	1254
391.828	1294.63
392.037	1065.02
392.245	1285.8
392.454	1119.77
392.662	1282.26
392.871	1208.08
393.08	1294.63
393.288	1054.42
393.497	1600.18
393.705	1405.9
393.913	1195.72
394.122	1367.04
394.33	1321.12
394.539	1275.2
394.747	1495.97
394.956	1352.91
395.164	1384.7
395.372	1418.26
395.581	1702.62
395.789	1930.46
395.997	2402.04
396.206	2421.47
396.414	2100.02
396.622	1799.76
396.831	1942.82
397.039	1718.52
397.247	1566.62
397.455	1437.69
397.663	1520.7
397.872	1216.91
398.08	1639.04
398.288	1206.32
398.496	1338.78
398.704	1254
398.912	1310.52
399.121	1329.95
399.329	1319.35
399.537	1306.99
399.745	1321.12
399.953	1282.26
400.161	1229.28
400.369	1312.29
400.577	1231.04
400.785	1061.49
400.993	1077.38
401.201	1209.85
401.409	1231.04
401.617	1338.78
401.825	1211.62
402.033	1250.47
402.24	1119.77
402.448	1116.24
402.656	1384.7
402.864	1087.98
403.072	1146.27
403.28	1391.77
403.487	1269.9
403.695	1287.56
403.903	1114.47
404.111	1172.76
404.319	1432.39
404.526	1284.03
404.734	1148.03
404.942	1280.5
405.149	1167.46
405.357	1135.67
405.565	1333.48
405.772	1183.36
405.98	1232.81
406.188	1508.34
406.395	1252.24
406.603	1156.86
406.81	1155.1
407.018	1370.57
407.226	1473.01
407.433	1257.54
407.641	1128.6
407.848	1458.88
408.056	1132.14
408.263	1296.39
408.471	1379.41
408.678	2156.54
408.885	3398.18
409.093	4779.35
409.3	5581.2
409.508	4627.45
409.715	4104.66
409.922	3177.4
410.13	2734.08
410.337	2410.87
410.544	1835.09
410.752	1503.04
410.959	1421.79
411.166	1439.46
411.373	886.63
411.581	1001.44
411.788	1206.32
411.995	1045.59
412.202	1110.94
412.41	943.15
412.617	994.37
412.824	923.72
413.031	1216.91
413.238	1027.93
413.445	798.32
413.652	1089.75
413.859	1022.63
414.067	879.57
414.274	982.01
414.481	913.13
414.688	1381.17
414.895	1065.02
415.102	1119.77
415.309	1280.5
415.516	1148.03
415.723	1133.9
415.929	1262.84
416.136	1172.76
416.343	1133.9
416.55	1271.67
416.757	1031.46
416.964	1354.68
417.171	1450.05
417.378	1208.08
417.584	1160.4
417.791	1107.41
417.998	1139.2
418.205	1042.06
418.412	1036.76
418.618	1066.79
418.825	1100.35
419.032	1038.53
419.239	1112.71
419.445	1118.01
419.652	1068.55
419.859	1047.36
420.065	1065.02
420.272	1310.52
420.478	1102.11
420.685	1073.85
420.892	1112.71
421.098	1047.36
421.305	900.76
421.511	888.4
421.718	959.05
421.924	794.79
422.131	925.49
422.337	996.14
422.544	923.72
422.75	764.77
422.957	724.14
423.163	1001.44
423.37	966.11
423.576	849.54
423.782	791.26
423.989	876.04
424.195	627
424.401	679.99
424.608	727.68
424.814	1047.36
425.02	732.97
425.227	807.16
425.433	1091.51
425.639	676.46
425.845	996.14
426.052	768.3
426.258	784.19
426.464	724.14
426.67	821.28
426.876	821.28
427.083	817.75
427.289	782.43
427.495	741.81
427.701	780.66
427.907	883.1
428.113	807.16
428.319	877.8
428.525	856.61
428.731	925.49
428.937	740.04
429.143	710.01
429.349	1038.53
429.555	1031.46
429.761	944.92
429.967	1273.43
430.173	1119.77
430.379	902.53
430.585	796.56
430.791	828.35
430.997	946.69
431.203	1024.4
431.408	1072.09
431.614	951.98
431.82	1137.44
432.026	1001.44
432.232	1411.2
432.437	2361.41
432.643	5918.55
432.849	14957.98
433.055	22499.67
433.26	23262.67
433.466	19046.74
433.672	15516.1
433.877	12699.01
434.083	10033.81
434.289	7041.86
434.494	5141.42
434.7	3701.96
434.906	3006.08
435.111	1879.24
435.317	1690.26
435.522	1344.08
435.728	1372.34
435.933	1603.71
436.139	1202.78
436.344	1020.87
436.55	1098.58
436.755	985.54
436.961	1015.57
437.166	957.28
437.372	770.06
437.577	932.56
437.782	1112.71
437.988	909.6
438.193	1080.92
438.398	916.66
438.604	994.37
438.809	755.94
439.014	860.14
439.22	973.18
439.425	824.82
439.63	1089.75
439.835	782.43
440.041	955.52
440.246	768.3
440.451	1022.63
440.656	1063.25
440.861	1266.37
441.067	1391.77
441.272	1379.41
441.477	1057.96
441.682	1084.45
441.887	953.75
442.092	821.28
442.297	844.25
442.502	1033.23
442.707	950.22
442.912	740.04
443.117	717.08
443.322	759.47
443.527	900.76
443.732	950.22
443.937	899
444.142	989.07
444.347	1176.29
444.552	982.01
444.757	854.84
444.962	1140.97
445.166	1012.03
445.371	1010.27
445.576	927.26
445.781	1075.62
445.986	840.71
446.191	939.62
446.395	1043.83
446.6	741.81
446.805	893.7
447.01	1015.57
447.214	877.8
447.419	916.66
447.624	969.65
447.828	738.27
448.033	747.1
448.238	900.76
448.442	1238.11
448.647	833.65
448.851	893.7
449.056	747.1
449.261	872.5
449.465	844.25
449.67	959.05
449.874	837.18
450.079	990.84
450.283	717.08
450.488	815.99
450.692	704.72
450.896	1095.05
451.101	858.38
451.305	664.09
451.51	787.73
451.714	966.11
451.918	718.85
452.123	989.07
452.327	679.99
452.531	717.08
452.736	884.87
452.94	814.22
453.144	757.7
453.349	773.6
453.553	685.29
453.757	621.7
453.961	738.27
454.166	921.96
454.37	830.12
454.574	807.16
454.778	867.21
454.982	943.15
455.186	755.94
455.39	763
455.595	808.92
455.799	800.09
456.003	1095.05
456.207	1022.63
456.411	1040.29
456.615	883.1
456.819	989.07
457.023	1276.97
457.227	1397.07
457.431	950.22
457.635	913.13
457.839	955.52
458.043	846.01
458.246	704.72
458.45	787.73
458.654	727.68
458.858	812.45
459.062	962.58
459.266	782.43
459.47	900.76
459.673	415.06
459.877	800.09
460.081	526.33
460.285	782.43
460.488	815.99
460.692	683.52
460.896	695.88
461.1	724.14
461.303	757.7
461.507	918.43
461.711	821.28
461.914	918.43
462.118	1165.69
462.321	1264.6
462.525	1467.72
462.729	1201.02
462.932	1019.1
463.136	962.58
463.339	969.65
463.543	870.74
463.746	800.09
463.95	798.32
464.153	819.52
464.357	939.62
464.56	724.14
464.764	851.31
464.967	581.08
465.17	655.26
465.374	619.94
465.577	844.25
465.78	692.35
465.984	642.9
466.187	743.57
466.39	888.4
466.594	646.43
466.797	485.71
467	757.7
467.203	808.92
467.407	888.4
467.61	748.87
467.813	902.53
468.016	731.21
468.219	710.01
468.423	846.01
468.626	846.01
468.829	570.48
469.032	522.8
469.235	685.29
469.438	888.4
469.641	725.91
469.844	506.9
470.047	510.43
470.25	708.25
470.453	581.08
470.656	340.88
470.859	793.03
471.062	883.1
471.265	904.3
471.468	897.23
471.671	851.31
471.874	801.86
472.077	973.18
472.28	641.13
472.483	754.17
472.685	621.7
472.888	547.52
473.091	768.3
473.294	619.94
473.497	672.92
473.699	376.2
473.902	702.95
474.105	510.43
474.308	552.82
474.51	628.77
474.713	649.96
474.916	883.1
475.118	794.79
475.321	519.26
475.524	605.81
475.726	768.3
475.929	619.94
476.131	480.41
476.334	593.44
476.536	588.15
476.739	761.23
476.942	718.85
477.144	828.35
477.347	944.92
477.549	752.4
477.751	997.91
477.954	672.92
478.156	890.17
478.359	923.72
478.561	900.76
478.764	1084.45
478.966	996.14
479.168	895.47
479.371	937.85
479.573	819.52
479.775	1215.15
479.978	969.65
480.18	1326.42
480.382	838.95
480.584	990.84
480.787	1195.72
480.989	1222.21
481.191	1125.07
481.393	1301.69
481.595	1480.08
481.797	1522.47
482	1495.97
482.202	1699.09
482.404	1808.59
482.606	1992.28
482.808	2048.8
483.01	2071.76
483.212	2366.71
483.414	2290.77
483.616	2364.95
483.818	2993.72
484.02	3486.49
484.222	4841.17
484.424	6753.96
484.626	15297.09
484.828	60024.44
485.03	61806.54
485.232	61859.53
485.434	61859.53
485.636	61859.53
485.837	61859.53
486.039	61859.53
486.241	61859.53
486.443	61859.53
486.645	61859.53
486.847	61859.53
487.048	61859.53
487.25	61859.53
487.452	61859.53
487.653	61859.53
487.855	61859.53
488.057	51855.75
488.259	37304
488.46	3668.41
488.662	3391.11
488.863	2629.88
489.065	2679.33
489.267	2108.85
489.468	2062.93
489.67	1891.6
489.871	1713.22
490.073	1776.8
490.274	1759.14
490.476	1340.55
490.677	1492.44
490.879	1314.06
491.08	1646.1
491.282	1227.51
491.483	1580.75
491.685	1448.29
491.886	1654.93
492.087	1944.59
492.289	1824.49
492.49	1902.2
492.691	1838.62
492.893	1865.11
493.094	1798
493.295	1522.47
493.497	1437.69
493.698	1271.67
493.899	1269.9
494.1	1201.02
494.302	1331.72
494.503	1017.33
494.704	1266.37
494.905	1185.12
495.106	1393.53
495.307	950.22
495.509	1209.85
495.71	953.75
495.911	962.58
496.112	1140.97
496.313	1123.31
496.514	989.07
496.715	1262.84
496.916	1402.37
497.117	1367.04
497.318	944.92
497.519	1026.16
497.72	842.48
497.921	904.3
498.122	883.1
498.323	1142.73
498.524	819.52
498.724	932.56
498.925	884.87
499.126	973.18
499.327	916.66
499.528	1043.83
499.729	870.74
499.929	1116.24
500.13	1050.89
500.331	1287.56
500.532	1245.17
500.732	1331.72
500.933	1079.15
501.134	1255.77
501.334	967.88
501.535	1130.37
501.736	865.44
501.936	1004.97
502.137	821.28
502.338	976.71
502.538	1036.76
502.739	1038.53
502.939	710.01
503.14	787.73
503.34	939.62
503.541	1103.88
503.741	835.41
503.942	593.44
504.142	671.16
504.343	715.31
504.543	808.92
504.744	674.69
504.944	563.42
505.144	796.56
505.345	798.32
505.545	1017.33
505.745	826.58
505.946	1054.42
506.146	860.14
506.346	768.3
506.547	860.14
506.747	1054.42
506.947	932.56
507.147	944.92
507.347	1047.36
507.548	1036.76
507.748	780.66
507.948	842.48
508.148	828.35
508.348	900.76
508.548	810.69
508.749	674.69
508.949	925.49
509.149	734.74
509.349	642.9
509.549	577.55
509.749	777.13
509.949	785.96
510.149	729.44
510.349	634.07
510.549	785.96
510.749	1040.29
510.949	770.06
511.149	791.26
511.349	708.25
511.548	724.14
511.748	533.39
511.948	715.31
512.148	740.04
512.348	582.85
512.548	1872.18
512.747	717.08
512.947	664.09
513.147	658.79
513.347	812.45
513.546	856.61
513.746	840.71
513.946	870.74
514.146	837.18
514.345	662.33
514.545	1073.85
514.745	828.35
514.944	674.69
515.144	582.85
515.343	722.38
515.543	937.85
515.743	837.18
515.942	819.52
516.142	649.96
516.341	830.12
516.541	817.75
516.74	794.79
516.94	831.88
517.139	740.04
517.338	798.32
517.538	676.46
517.737	770.06
517.937	810.69
518.136	853.08
518.335	846.01
518.535	807.16
518.734	948.45
518.933	648.2
519.133	750.64
519.332	916.66
519.531	734.74
519.731	582.85
519.93	796.56
520.129	660.56
520.328	1029.7
520.527	722.38
520.727	702.95
520.926	460.98
521.125	664.09
521.324	605.81
521.523	639.37
521.722	600.51
521.921	823.05
522.12	870.74
522.319	828.35
522.518	844.25
522.717	630.53
522.916	642.9
523.115	713.55
523.314	568.72
523.513	660.56
523.712	657.03
523.911	496.3
524.11	729.44
524.309	731.21
524.508	445.08
524.707	556.35
524.906	798.32
525.104	787.73
525.303	791.26
525.502	1093.28
525.701	930.79
525.9	969.65
526.098	1056.19
526.297	775.36
526.496	835.41
526.695	747.1
526.893	865.44
527.092	695.88
527.291	704.72
527.489	897.23
527.688	566.95
527.886	819.52
528.085	533.39
528.284	665.86
528.482	482.17
528.681	543.99
528.879	662.33
529.078	755.94
529.276	558.12
529.475	473.34
529.673	489.24
529.872	637.6
530.07	732.97
530.269	542.22
530.467	471.58
530.665	632.3
530.864	575.78
531.062	662.33
531.261	619.94
531.459	566.95
531.657	646.43
531.855	819.52
532.054	687.05
532.252	990.84
532.45	755.94
532.649	738.27
532.847	570.48
533.045	777.13
533.243	536.93
533.441	761.23
533.639	554.59
533.838	665.86
534.036	549.29
534.234	365.6
534.432	432.72
534.63	466.28
534.828	445.08
535.026	641.13
535.224	959.05
535.422	307.32
535.62	641.13
535.818	736.51
536.016	669.39
536.214	475.11
536.412	596.98
536.61	694.12
536.808	639.37
537.006	687.05
537.204	727.68
537.401	561.65
537.599	614.64
537.797	554.59
537.995	628.77
538.193	838.95
538.391	363.84
538.588	725.91
538.786	547.52
538.984	722.38
539.182	552.82
539.379	805.39
539.577	736.51
539.775	430.95
539.972	596.98
540.17	741.81
540.368	337.34
540.565	720.61
540.763	884.87
540.96	720.61
541.158	771.83
541.355	800.09
541.553	860.14
541.75	830.12
541.948	725.91
542.145	678.22
542.343	1045.59
542.54	609.34
542.738	738.27
542.935	941.39
543.133	704.72
543.33	955.52
543.527	579.31
543.725	579.31
543.922	681.75
544.119	598.74
544.317	600.51
544.514	457.45
544.711	708.25
544.908	565.19
545.106	676.46
545.303	559.89
545.5	499.84
545.697	688.82
545.895	496.3
546.092	934.32
546.289	515.73
546.486	517.5
546.683	960.81
546.88	607.57
547.077	551.06
547.274	591.68
547.471	388.56
547.668	595.21
547.865	499.84
548.063	672.92
548.259	517.5
548.456	701.18
548.653	568.72
548.85	535.16
549.047	494.54
549.244	808.92
549.441	745.34
549.638	547.52
549.835	531.63
550.032	379.73
550.229	702.95
550.425	678.22
550.622	551.06
550.819	512.2
551.016	231.37
551.212	434.49
551.409	535.16
551.606	588.15
551.803	286.13
551.999	542.22
552.196	349.71
552.393	577.55
552.589	561.65
552.786	614.64
552.983	531.63
553.179	473.34
553.376	732.97
553.572	476.88
553.769	542.22
553.965	508.67
554.162	298.49
554.358	535.16
554.555	356.77
554.751	732.97
554.948	609.34
555.144	505.13
555.341	524.56
555.537	734.74
555.733	485.71
555.93	649.96
556.126	512.2
556.322	483.94
556.519	460.98
556.715	478.64
556.911	330.28
557.108	565.19
557.304	459.21
557.5	798.32
557.696	383.27
557.893	616.41
558.089	559.89
558.285	489.24
558.481	453.91
558.677	674.69
558.873	586.38
559.07	579.31
559.266	438.02
559.462	533.39
559.658	536.93
559.854	450.38
560.05	528.1
560.246	542.22
560.442	664.09
560.638	372.67
560.834	718.85
561.03	436.25
561.226	612.87
561.422	662.33
561.618	475.11
561.813	531.63
562.009	761.23
562.205	422.12
562.401	612.87
562.597	646.43
562.793	653.5
562.988	326.75
563.184	711.78
563.38	634.07
563.576	360.31
563.772	642.9
563.967	427.42
564.163	531.63
564.359	676.46
564.554	807.16
564.75	665.86
564.946	787.73
565.141	554.59
565.337	807.16
565.532	632.3
565.728	752.4
565.923	897.23
566.119	812.45
566.315	830.12
566.51	953.75
566.706	671.16
566.901	627
567.096	697.65
567.292	642.9
567.487	923.72
567.683	1008.5
567.878	1333.48
568.074	1216.91
568.269	1276.97
568.464	1276.97
568.66	1195.72
568.855	1252.24
569.05	1395.3
569.245	1347.61
569.441	1400.6
569.636	1487.14
569.831	1239.88
570.026	1303.46
570.222	951.98
570.417	1257.54
570.612	865.44
570.807	921.96
571.002	900.76
571.197	810.69
571.393	764.77
571.588	773.6
571.783	1084.45
571.978	1296.39
572.173	1563.09
572.368	1596.65
572.563	1614.31
572.758	1663.76
572.953	1635.5
573.148	1639.04
573.343	1616.08
573.538	1554.26
573.733	1303.46
573.927	1352.91
574.122	1072.09
574.317	1089.75
574.512	1199.25
574.707	1165.69
574.902	1501.27
575.096	1616.08
575.291	1695.56
575.486	1679.66
575.681	2071.76
575.876	1692.02
576.07	1488.91
576.265	1577.22
576.46	1407.66
576.654	1610.78
576.849	1600.18
577.044	1584.29
577.238	1745.01
577.433	1745.01
577.627	1700.85
577.822	1978.15
578.017	1737.94
578.211	1884.54
578.406	1930.46
578.6	2029.37
578.795	1842.15
578.989	2064.69
579.184	1782.1
579.378	2236.01
579.572	1995.81
579.767	2181.26
579.961	2062.93
580.156	2338.45
580.35	3345.19
580.544	3698.43
580.739	3576.56
580.933	3512.98
581.127	3470.59
581.322	3189.76
581.516	3055.53
581.71	2804.73
581.904	2592.79
582.099	2172.43
582.293	2236.01
582.487	2214.82
582.681	2216.59
582.875	2357.88
583.069	2165.37
583.263	2017
583.458	1783.87
583.652	1722.05
583.846	1725.58
584.04	1568.39
584.234	1794.46
584.428	1455.35
584.622	1347.61
584.816	1306.99
585.01	1227.51
585.204	1188.66
585.398	1167.46
585.592	1464.18
585.786	1400.6
585.979	1241.64
586.173	1568.39
586.367	1663.76
586.561	1526
586.755	1589.58
586.949	1354.68
587.142	1510.1
587.336	1473.01
587.53	1714.98
587.724	2160.07
587.917	2647.54
588.111	2552.16
588.305	2387.91
588.499	2354.35
588.692	2103.55
588.886	1994.04
589.08	1734.41
589.273	1683.19
589.467	1533.07
589.66	1517.17
589.854	1059.72
590.047	1126.84
590.241	996.14
590.434	930.79
590.628	1216.91
590.821	1259.3
591.015	1388.24
591.208	1474.78
591.402	1478.31
591.595	1427.09
591.789	1699.09
591.982	1480.08
592.175	1771.5
592.369	1935.76
592.562	1527.77
592.755	1808.59
592.949	1992.28
593.142	2442.66
593.335	2276.64
593.529	1956.95
593.722	1891.6
593.915	1714.98
594.108	1672.6
594.301	1420.03
594.495	1506.57
594.688	1584.29
594.881	1337.02
595.074	1368.81
595.267	1467.72
595.46	1540.13
595.653	1480.08
595.846	1547.19
596.039	1884.54
596.232	1775.04
596.425	1994.04
596.618	2041.73
596.811	2432.06
597.004	2064.69
597.197	2200.69
597.39	2190.09
597.583	2364.95
597.776	1988.75
597.969	1741.48
598.162	1872.18
598.355	1732.65
598.548	1626.67
598.74	1476.55
598.933	1087.98
599.126	1284.03
599.319	1384.7
599.511	1384.7
599.704	1545.43
599.897	1425.33
600.09	1344.08
600.282	1386.47
600.475	941.39
600.668	1015.57
600.86	1478.31
601.053	1571.92
601.245	1699.09
601.438	1695.56
601.631	1842.15
601.823	1843.92
602.016	2356.12
602.208	2790.6
602.401	3067.9
602.593	3103.22
602.786	2530.97
602.978	2236.01
603.171	2004.64
603.363	2084.12
603.555	1684.96
603.748	1628.44
603.94	1465.95
604.133	1421.79
604.325	1404.13
604.517	1356.44
604.71	1321.12
604.902	1631.97
605.094	1275.2
605.286	1365.28
605.479	1453.59
605.671	1601.95
605.863	1390
606.055	1872.18
606.247	2048.8
606.44	2191.86
606.632	1792.7
606.824	1796.23
607.016	1722.05
607.208	1612.54
607.4	1794.46
607.592	1495.97
607.784	1649.63
607.976	1495.97
608.168	1483.61
608.36	1662
608.552	1743.24
608.744	1610.78
608.936	1510.1
609.128	1372.34
609.32	1511.87
609.512	1086.22
609.704	997.91
609.896	1093.28
610.087	974.94
610.279	729.44
610.471	694.12
610.663	720.61
610.855	877.8
611.046	944.92
611.238	1066.79
611.43	1257.54
611.622	1326.42
611.813	1395.3
612.005	1280.5
612.197	1337.02
612.388	1457.12
612.58	1633.74
612.772	2066.46
612.963	1903.97
613.155	1949.89
613.346	1660.23
613.538	1564.86
613.729	1465.95
613.921	1211.62
614.112	1386.47
614.304	1089.75
614.495	1374.11
614.687	1370.57
614.878	1656.7
615.07	1805.06
615.261	2098.25
615.452	2024.07
615.644	1877.47
615.835	1727.35
616.026	1589.58
616.218	1347.61
616.409	1314.06
616.6	1351.15
616.792	1571.92
616.983	1372.34
617.174	1329.95
617.365	1079.15
617.557	1116.24
617.748	1084.45
617.939	967.88
618.13	826.58
618.321	785.96
618.512	545.76
618.703	688.82
618.894	1057.96
619.086	1266.37
619.277	1020.87
619.468	1112.71
619.659	893.7
619.85	1001.44
620.041	791.26
620.232	671.16
620.423	681.75
620.613	699.42
620.804	598.74
620.995	344.41
621.186	450.38
621.377	823.05
621.568	874.27
621.759	1008.5
621.95	920.19
622.14	870.74
622.331	1268.13
622.522	941.39
622.713	1015.57
622.903	1073.85
623.094	1179.82
623.285	971.41
623.475	1211.62
623.666	1008.5
623.857	1054.42
624.047	725.91
624.238	798.32
624.429	551.06
624.619	718.85
624.81	554.59
625	453.91
625.191	478.64
625.381	672.92
625.572	563.42
625.762	667.63
625.953	596.98
626.143	503.37
626.334	536.93
626.524	718.85
626.715	815.99
626.905	1031.46
627.095	607.57
627.286	1008.5
627.476	676.46
627.666	763
627.857	566.95
628.047	637.6
628.237	506.9
628.427	651.73
628.618	556.35
628.808	300.25
628.998	233.14
629.188	761.23
629.378	752.4
629.569	496.3
629.759	784.19
629.949	513.97
630.139	496.3
630.329	240.2
630.519	296.72
630.709	351.47
630.899	559.89
631.089	307.32
631.279	651.73
631.469	302.02
631.659	609.34
631.849	745.34
632.039	572.25
632.229	777.13
632.419	750.64
632.609	724.14
632.799	635.83
632.988	683.52
633.178	641.13
633.368	575.78
633.558	596.98
633.748	556.35
633.937	644.66
634.127	372.67
634.317	561.65
634.507	462.75
634.696	496.3
634.886	381.5
635.076	400.93
635.265	324.98
635.455	466.28
635.645	367.37
635.834	672.92
636.024	757.7
636.213	531.63
636.403	619.94
636.592	602.28
636.782	381.5
636.971	604.04
637.161	452.15
637.35	422.12
637.54	614.64
637.729	521.03
637.919	356.77
638.108	439.78
638.297	429.19
638.487	436.25
638.676	538.69
638.866	501.6
639.055	438.02
639.244	683.52
639.433	471.58
639.623	618.17
639.812	665.86
640.001	563.42
640.19	351.47
640.38	407.99
640.569	367.37
640.758	561.65
640.947	662.33
641.136	238.44
641.325	535.16
641.514	503.37
641.703	522.8
641.893	432.72
642.082	570.48
642.271	648.2
642.46	399.16
642.649	634.07
642.838	512.2
643.027	538.69
643.215	538.69
643.404	501.6
643.593	425.66
643.782	395.63
643.971	777.13
644.16	681.75
644.349	436.25
644.538	798.32
644.726	743.57
644.915	966.11
645.104	921.96
645.293	849.54
645.481	817.75
645.67	649.96
645.859	651.73
646.048	1130.37
646.236	607.57
646.425	701.18
646.614	800.09
646.802	667.63
646.991	796.56
647.179	856.61
647.368	727.68
647.557	734.74
647.745	893.7
647.934	895.47
648.122	971.41
648.311	899
648.499	807.16
648.687	936.09
648.876	1301.69
649.064	1027.93
649.253	1165.69
649.441	1105.64
649.63	1091.51
649.818	1476.55
650.006	1359.98
650.195	1478.31
650.383	1727.35
650.571	1621.38
650.759	2082.35
650.948	2232.48
651.136	2183.03
651.324	2292.53
651.512	2938.96
651.7	3138.54
651.889	3484.72
652.077	4374.89
652.265	4500.29
652.453	5173.21
652.641	5884.99
652.829	5945.04
653.017	6609.14
653.205	7709.48
653.393	8739.18
653.581	9292
653.769	9413.87
653.957	10233.39
654.145	10388.81
654.333	12280.42
654.521	15380.1
654.709	23176.13
654.897	37740.25
655.085	61442.71
655.273	61506.29
655.461	61859.53
655.648	61859.53
655.836	61859.53
656.024	61859.53
656.212	61859.53
656.399	61859.53
656.587	61859.53
656.775	61859.53
656.963	61859.53
657.15	61859.53
657.338	61859.53
657.526	61859.53
657.713	61859.53
657.901	61859.53
658.089	61859.53
658.276	61859.53
658.464	61859.53
658.651	61859.53
658.839	61859.53
659.026	61859.53
659.214	61859.53
659.401	61859.53
659.589	61859.53
659.776	61859.53
659.964	61859.53
660.151	61859.53
660.338	61859.53
660.526	61859.53
660.713	61859.53
660.901	61859.53
661.088	61859.53
661.275	61859.53
661.463	61859.53
661.65	61859.53
661.837	61859.53
662.024	61859.53
662.212	61859.53
662.399	61859.53
662.586	61859.53
662.773	61859.53
662.96	61859.53
663.147	61859.53
663.335	61859.53
663.522	61859.53
663.709	61859.53
663.896	61859.53
664.083	61859.53
664.27	61859.53
664.457	61859.53
664.644	61859.53
664.831	61859.53
665.018	61859.53
665.205	61859.53
665.392	61859.53
665.579	61859.53
665.766	61859.53
665.953	61859.53
666.139	61859.53
666.326	61859.53
666.513	61859.53
666.7	61859.53
666.887	61859.53
667.074	61859.53
667.26	61859.53
667.447	61859.53
667.634	61859.53
667.821	61859.53
668.007	61859.53
668.194	61859.53
668.381	61859.53
668.567	61859.53
668.754	61859.53
668.94	61859.53
669.127	43596.98
669.314	3599.52
669.5	2202.46
669.687	1813.89
669.873	1805.06
670.06	1732.65
670.246	1589.58
670.433	1570.16
670.619	1252.24
670.806	1310.52
670.992	957.28
671.178	1019.1
671.365	1112.71
671.551	1031.46
671.738	706.48
671.924	1045.59
672.11	812.45
672.297	939.62
672.483	955.52
672.669	641.13
672.855	697.65
673.042	574.02
673.228	785.96
673.414	699.42
673.6	648.2
673.786	708.25
673.973	745.34
674.159	664.09
674.345	651.73
674.531	531.63
674.717	568.72
674.903	339.11
675.089	362.07
675.275	462.75
675.461	392.1
675.647	423.89
675.833	591.68
676.019	445.08
676.205	533.39
676.391	596.98
676.577	457.45
676.763	213.71
676.949	531.63
677.134	377.97
677.32	642.9
677.506	446.85
677.692	487.47
677.878	257.87
678.064	423.89
678.249	383.27
678.435	582.85
678.621	234.91
678.806	360.31
678.992	436.25
679.178	356.77
679.363	328.51
679.549	452.15
679.735	266.7
679.92	358.54
680.106	275.53
680.291	402.69
680.477	287.89
680.663	538.69
680.848	37.09
681.034	347.94
681.219	224.31
681.404	358.54
681.59	385.03
681.775	310.85
681.961	275.53
682.146	379.73
682.332	499.84
682.517	194.28
682.702	471.58
682.888	188.98
683.073	379.73
683.258	658.79
683.443	303.79
683.629	418.59
683.814	196.05
683.999	323.22
684.184	123.63
684.37	199.58
684.555	413.29
684.74	259.63
684.925	196.05
685.11	98.91
685.295	466.28
685.48	360.31
685.665	291.42
685.85	150.13
686.035	249.03
686.22	386.8
686.405	362.07
686.59	134.23
686.775	144.83
686.96	250.8
687.145	379.73
687.33	162.49
687.515	241.97
687.7	261.4
687.885	395.63
688.07	199.58
688.254	256.1
688.439	254.33
688.624	210.18
688.809	146.59
688.993	367.37
689.178	105.97
689.363	227.84
689.548	185.45
689.732	217.24
689.917	605.81
690.102	174.85
690.286	353.24
690.471	194.28
690.655	167.79
690.84	259.63
691.025	164.26
691.209	312.62
691.394	197.81
691.578	100.67
691.763	199.58
691.947	187.22
692.132	392.1
692.316	118.34
692.5	38.86
692.685	219.01
692.869	162.49
693.054	95.38
693.238	227.84
693.422	35.32
693.607	224.31
693.791	574.02
693.975	63.58
694.159	211.94
694.344	199.58
694.528	139.53
694.712	208.41
694.896	192.52
695.081	227.84
695.265	134.23
695.449	136
695.633	151.89
695.817	102.44
696.001	134.23
696.185	121.87
696.369	219.01
696.553	123.63
696.737	275.53
696.921	347.94
697.105	646.43
697.289	75.95
697.473	137.76
697.657	160.72
697.841	102.44
698.025	24.73
698.209	284.36
698.393	24.73
698.577	-5.3
698.76	56.52
698.944	74.18
699.128	-21.19
699.312	91.84
699.496	498.07
699.679	263.16
699.863	105.97
700.047	302.02
700.23	93.61
700.414	162.49
700.598	-42.39
700.781	196.05
700.965	132.47
701.149	328.51
701.332	1.77
701.516	305.55
701.699	224.31
701.883	337.34
702.066	158.96
702.25	296.72
702.433	229.61
702.617	227.84
702.8	125.4
702.984	272
703.167	238.44
703.35	166.02
703.534	24.73
703.717	259.63
703.901	215.48
704.084	358.54
704.267	208.41
704.45	166.02
704.634	121.87
704.817	367.37
705	199.58
705.183	-169.56
705.367	155.43
705.55	134.23
705.733	-100.67
705.916	254.33
706.099	347.94
706.282	376.2
706.465	68.88
706.649	136
706.832	319.68
707.015	60.05
707.198	169.56
707.381	54.75
707.564	144.83
707.747	81.25
707.93	215.48
708.113	160.72
708.295	26.49
708.478	250.8
708.661	14.13
708.844	162.49
709.027	192.52
709.21	174.85
709.393	293.19
709.575	83.01
709.758	30.03
709.941	81.25
710.124	245.5
710.306	353.24
710.489	171.32
710.672	335.58
710.854	137.76
711.037	-22.96
711.22	167.79
711.402	310.85
711.585	31.79
711.768	7.06
711.95	118.34
712.133	210.18
712.315	153.66
712.498	250.8
712.68	199.58
712.863	241.97
713.045	30.03
713.228	79.48
713.41	35.32
713.592	204.88
713.775	113.04
713.957	81.25
714.139	102.44
714.322	61.82
714.504	86.54
714.686	139.53
714.869	14.13
715.051	346.18
715.233	174.85
715.415	-183.69
715.598	33.56
715.78	192.52
715.962	192.52
716.144	153.66
716.326	143.06
716.509	203.11
716.691	346.18
716.873	268.46
717.055	143.06
717.237	455.68
717.419	188.98
717.601	231.37
717.783	196.05
717.965	247.27
718.147	176.62
718.329	206.65
718.511	-12.36
718.693	309.09
718.875	199.58
719.056	224.31
719.238	286.13
719.42	60.05
719.602	-19.43
719.784	113.04
719.966	210.18
720.147	109.5
720.329	17.66
720.511	113.04
720.692	143.06
720.874	471.58
721.056	204.88
721.238	91.84
721.419	22.96
721.601	0
721.782	61.82
721.964	-12.36
722.146	136
722.327	105.97
722.509	224.31
722.69	157.19
722.872	208.41
723.053	254.33
723.235	372.67
723.416	-97.14
723.598	254.33
723.779	346.18
723.96	294.96
724.142	333.81
724.323	282.59
724.504	312.62
724.686	291.42
724.867	266.7
725.048	286.13
725.23	400.93
725.411	98.91
725.592	370.9
725.773	234.91
725.955	815.99
726.136	393.86
726.317	143.06
726.498	346.18
726.679	208.41
726.86	162.49
727.041	206.65
727.223	247.27
727.404	185.45
727.585	187.22
727.766	241.97
727.947	381.5
728.128	217.24
728.309	151.89
728.49	183.69
728.671	293.19
728.851	404.46
729.032	178.39
729.213	190.75
729.394	185.45
729.575	81.25
729.756	141.3
729.937	310.85
730.117	245.5
730.298	250.8
730.479	113.04
730.66	125.4
730.84	400.93
731.021	294.96
731.202	261.4
731.382	104.21
731.563	164.26
731.744	174.85
731.924	54.75
732.105	83.01
732.286	136
732.466	151.89
732.647	68.88
732.827	93.61
733.008	83.01
733.188	7.06
733.369	-52.99
733.549	128.93
733.73	166.02
733.91	146.59
734.09	90.08
734.271	176.62
734.451	158.96
734.631	222.54
734.812	40.62
734.992	220.78
735.172	241.97
735.353	158.96
735.533	148.36
735.713	298.49
735.893	356.77
736.074	-14.13
736.254	367.37
736.434	146.59
736.614	222.54
736.794	17.66
736.974	5.3
737.154	-33.56
737.335	164.26
737.515	-21.19
737.695	-7.06
737.875	386.8
738.055	35.32
738.235	77.71
738.415	-8.83
738.595	330.28
738.775	-33.56
738.954	192.52
739.134	100.67
739.314	-37.09
739.494	146.59
739.674	123.63
739.854	-151.89
740.034	24.73
740.213	160.72
740.393	-136
740.573	0
740.753	176.62
740.932	17.66
741.112	-90.08
741.292	-68.88
741.471	114.8
741.651	365.6
741.831	-63.58
742.01	116.57
742.19	60.05
742.37	31.79
742.549	178.39
742.729	-22.96
742.908	176.62
743.088	0
743.267	-21.19
743.447	275.53
743.626	326.75
743.805	379.73
743.985	61.82
744.164	224.31
744.344	118.34
744.523	219.01
744.702	58.28
744.882	231.37
745.061	-114.8
745.24	337.34
745.42	121.87
745.599	120.1
745.778	224.31
745.957	86.54
746.137	104.21
746.316	49.45
746.495	185.45
746.674	54.75
746.853	324.98
747.032	75.95
747.211	220.78
747.39	45.92
747.569	-100.67
747.749	220.78
747.928	164.26
748.107	-120.1
748.286	88.31
748.464	164.26
748.643	247.27
748.822	116.57
749.001	-118.34
749.18	169.56
749.359	105.97
749.538	-118.34
749.717	10.6
749.896	166.02
750.074	150.13
750.253	270.23
750.432	60.05
750.611	-137.76
750.789	31.79
750.968	14.13
751.147	197.81
751.325	98.91
751.504	300.25
751.683	144.83
751.861	44.16
752.04	58.28
752.219	-160.72
752.397	180.15
752.576	38.86
752.754	38.86
752.933	257.87
753.111	441.55
753.29	49.45
753.468	363.84
753.647	-56.52
753.825	84.78
754.003	52.99
754.182	270.23
754.36	-10.6
754.539	58.28
754.717	44.16
754.895	169.56
755.074	49.45
755.252	-28.26
755.43	211.94
755.608	113.04
755.787	68.88
755.965	100.67
756.143	30.03
756.321	143.06
756.499	100.67
756.677	107.74
756.856	60.05
757.034	3.53
757.212	63.58
757.39	10.6
757.568	127.17
757.746	349.71
757.924	88.31
758.102	61.82
758.28	134.23
758.458	-19.43
758.636	250.8
758.814	176.62
758.992	337.34
759.169	68.88
759.347	187.22
759.525	74.18
759.703	220.78
759.881	68.88
760.059	224.31
760.236	77.71
760.414	236.67
760.592	-88.31
760.77	-5.3
760.947	241.97
761.125	132.47
761.303	187.22
761.48	21.19
761.658	155.43
761.835	222.54
762.013	8.83
762.191	14.13
762.368	-26.49
762.546	26.49
762.723	-88.31
762.901	-35.32
763.078	181.92
763.256	162.49
763.433	-121.87
763.611	190.75
763.788	40.62
763.965	54.75
764.143	-15.9
764.32	97.14
764.497	174.85
764.675	40.62
764.852	100.67
765.029	196.05
765.207	100.67
765.384	273.76
765.561	72.41
765.738	-88.31
765.915	-51.22
766.093	215.48
766.27	114.8
766.447	176.62
766.624	98.91
766.801	83.01
766.978	215.48
767.155	70.65
767.332	51.22
767.509	86.54
767.686	185.45
767.863	52.99
768.04	241.97
768.217	74.18
768.394	363.84
768.571	208.41
768.748	-28.26
768.925	81.25
769.102	91.84
769.279	28.26
769.455	-49.45
769.632	227.84
769.809	-10.6
769.986	121.87
770.163	58.28
770.339	22.96
770.516	-14.13
770.693	7.06
770.869	296.72
771.046	420.36
771.223	381.5
771.399	58.28
771.576	238.44
771.752	199.58
771.929	102.44
772.106	107.74
772.282	-74.18
772.459	30.03
772.635	28.26
772.812	95.38
772.988	49.45
773.165	74.18
773.341	35.32
773.517	188.98
773.694	-70.65
773.87	104.21
774.046	60.05
774.223	206.65
774.399	-37.09
774.575	54.75
774.752	252.57
774.928	113.04
775.104	222.54
775.28	245.5
775.457	732.97
775.633	2357.88
775.809	6091.64
775.985	10999.92
776.161	14456.38
776.337	13855.87
776.513	10948.7
776.69	8424.79
776.866	6921.75
777.042	5906.19
777.218	4994.82
777.394	4600.96
777.57	3977.49
777.746	3647.21
777.922	3657.81
778.097	3509.45
778.273	3274.54
778.449	3120.88
778.625	2917.77
778.801	2333.16
778.977	1884.54
779.153	1239.88
779.328	729.44
779.504	619.94
779.68	268.46
779.856	510.43
780.031	268.46
780.207	349.71
780.383	79.48
780.559	-104.21
780.734	49.45
780.91	171.32
781.085	113.04
781.261	-63.58
781.437	102.44
781.612	174.85
781.788	42.39
781.963	-217.24
782.139	58.28
782.314	-45.92
782.49	-54.75
782.665	15.9
782.841	-137.76
783.016	141.3
783.191	-60.05
783.367	31.79
783.542	113.04
783.717	-137.76
783.893	128.93
784.068	-148.36
784.243	31.79
784.419	75.95
784.594	-7.06
784.769	-10.6
784.944	-51.22
785.12	-123.63
785.295	164.26
785.47	-104.21
785.645	-38.86
785.82	-47.69
785.995	35.32
786.17	-141.3
786.345	123.63
786.52	-60.05
786.695	130.7
786.87	104.21
787.045	114.8
787.22	17.66
787.395	-60.05
787.57	-81.25
787.745	51.22
787.92	81.25
788.095	-257.87
788.27	70.65
788.445	38.86
788.619	24.73
788.794	81.25
788.969	-14.13
789.144	-68.88
789.319	-98.91
789.493	17.66
789.668	-123.63
789.843	68.88
790.017	324.98
790.192	-90.08
790.367	7.06
790.541	-120.1
790.716	-72.41
790.89	-174.85
791.065	-38.86
791.24	19.43
791.414	-47.69
791.589	-61.82
791.763	-158.96
791.938	173.09
792.112	19.43
792.286	-229.61
792.461	-222.54
792.635	134.23
792.81	-49.45
792.984	58.28
793.158	247.27
793.333	56.52
793.507	143.06
793.681	-174.85
793.856	-14.13
794.03	8.83
794.204	107.74
794.378	-81.25
794.552	155.43
794.727	33.56
794.901	-84.78
795.075	-67.12
795.249	-10.6
795.423	100.67
795.597	210.18
795.771	44.16
795.945	183.69
796.119	-67.12
796.293	10.6
796.467	-61.82
796.641	-77.71
796.815	-231.37
796.989	-116.57
797.163	81.25
797.337	194.28
797.511	26.49
797.685	-215.48
797.859	-24.73
798.032	-180.15
798.206	-233.14
798.38	-107.74
798.554	-91.84
798.727	-134.23
798.901	-247.27
799.075	-100.67
799.249	54.75
799.422	-8.83
799.596	-97.14
799.77	-8.83
799.943	75.95
800.117	-160.72
800.29	68.88
800.464	56.52
800.637	-238.44
800.811	-174.85
800.985	-14.13
801.158	114.8
801.331	-114.8
801.505	-60.05
801.678	17.66
801.852	26.49
802.025	204.88
802.199	5.3
802.372	-141.3
802.545	-137.76
802.719	22.96
802.892	-132.47
803.065	-125.4
803.238	-26.49
803.412	-183.69
803.585	-88.31
803.758	-45.92
803.931	-116.57
804.104	-74.18
804.278	-167.79
804.451	427.42
804.624	-211.94
804.797	-95.38
804.97	-123.63
805.143	-176.62
805.316	-56.52
805.489	-33.56
805.662	-24.73
805.835	-28.26
806.008	-93.61
806.181	93.61
806.354	-35.32
806.527	-56.52
806.7	-30.03
806.873	-174.85
807.045	-74.18
807.218	181.92
807.391	-125.4
807.564	1.77
807.737	317.92
807.909	137.76
808.082	37.09
808.255	-45.92
808.428	56.52
808.6	15.9
808.773	123.63
808.946	17.66
809.118	-7.06
809.291	157.19
809.463	-42.39
809.636	31.79
809.809	-21.19
809.981	15.9
810.154	45.92
810.326	-75.95
810.499	98.91
810.671	-51.22
810.843	190.75
811.016	-31.79
811.188	95.38
811.361	22.96
811.533	220.78
811.705	-118.34
811.878	-52.99
812.05	21.19
812.222	-35.32
812.395	-10.6
812.567	-45.92
812.739	-28.26
812.911	273.76
813.083	-26.49
813.256	-134.23
813.428	-42.39
813.6	83.01
813.772	-1.77
813.944	-187.22
814.116	-44.16
814.288	19.43
814.46	-192.52
814.632	-15.9
814.804	28.26
814.976	-86.54
815.148	12.36
815.32	121.87
815.492	150.13
815.664	-203.11
815.836	-1.77
816.008	-185.45
816.18	-279.06
816.352	28.26
816.523	-109.5
816.695	5.3
816.867	-188.98
817.039	151.89
817.21	100.67
817.382	0
817.554	-111.27
817.726	105.97
817.897	-166.02
818.069	74.18
818.241	26.49
818.412	-116.57
818.584	-125.4
818.755	81.25
818.927	-81.25
819.098	12.36
819.27	367.37
819.441	77.71
819.613	-98.91
819.784	-91.84
819.956	-104.21
820.127	100.67
820.299	68.88
820.47	174.85
820.641	-213.71
820.813	-194.28
820.984	7.06
821.155	97.14
821.327	-118.34
821.498	40.62
821.669	84.78
821.84	-5.3
822.012	-5.3
822.183	67.12
822.354	284.36
822.525	90.08
822.696	-130.7
822.867	-56.52
823.039	-141.3
823.21	56.52
823.381	-111.27
823.552	-116.57
823.723	90.08
823.894	26.49
824.065	107.74
824.236	-98.91
824.407	-219.01
824.578	-150.13
824.749	-174.85
824.919	-38.86
825.09	234.91
825.261	-266.7
825.432	-238.44
825.603	-236.67
825.774	-141.3
825.944	21.19
826.115	-52.99
826.286	-49.45
826.457	-102.44
826.627	68.88
826.798	-26.49
826.969	77.71
827.139	188.98
827.31	-98.91
827.481	-125.4
827.651	-127.17
827.822	-111.27
827.992	-210.18
828.163	199.58
828.333	-148.36
828.504	83.01
828.674	-197.81
828.845	-120.1
829.015	3.53
829.186	-47.69
829.356	-19.43
829.527	61.82
829.697	-72.41
829.867	-201.35
830.038	67.12
830.208	70.65
830.378	12.36
830.548	-44.16
830.719	-42.39
830.889	-88.31
831.059	-143.06
831.229	-114.8
831.399	164.26
831.57	-114.8
831.74	60.05
831.91	-100.67
832.08	139.53
832.25	91.84
832.42	-241.97
832.59	-229.61
832.76	-65.35
832.93	40.62
833.1	181.92
833.27	-93.61
833.44	-183.69
833.61	-146.59
833.78	83.01
833.95	-97.14
834.12	68.88
834.29	-8.83
834.459	151.89
834.629	-58.28
834.799	-180.15
834.969	72.41
835.139	8.83
835.308	-215.48
835.478	-51.22
835.648	49.45
835.817	10.6
835.987	113.04
836.157	-60.05
836.326	-107.74
836.496	121.87
836.665	-24.73
836.835	-206.65
837.005	-201.35
837.174	192.52
837.344	56.52
837.513	88.31
837.683	-150.13
837.852	-105.97
838.021	-45.92
838.191	79.48
838.36	-60.05
838.53	12.36
838.699	-174.85
838.868	28.26
839.038	-130.7
839.207	63.58
839.376	-86.54
839.546	-52.99
839.715	-97.14
839.884	-21.19
840.053	40.62
840.222	-157.19
840.392	74.18
840.561	-166.02
840.73	-181.92
840.899	-54.75
841.068	-26.49
841.237	-17.66
841.406	63.58
841.575	166.02
841.744	-257.87
841.913	-162.49
842.082	-49.45
842.251	-114.8
842.42	-95.38
842.589	-63.58
842.758	153.66
842.927	-44.16
843.096	-12.36
843.264	60.05
843.433	245.5
843.602	574.02
843.771	1100.35
843.94	1405.9
844.108	1737.94
844.277	1863.35
844.446	2013.47
844.614	1746.78
844.783	1393.53
844.952	1464.18
845.12	1234.58
845.289	1252.24
845.458	1275.2
845.626	1027.93
845.795	1201.02
845.963	1142.73
846.132	1158.63
846.3	851.31
846.469	752.4
846.637	535.16
846.806	217.24
846.974	83.01
847.142	385.03
847.311	257.87
847.479	111.27
847.648	-19.43
847.816	-178.39
847.984	31.79
848.152	-10.6
848.321	-100.67
848.489	367.37
848.657	26.49
848.825	-56.52
848.994	144.83
849.162	15.9
849.33	-93.61
849.498	19.43
849.666	-114.8
849.834	42.39
850.002	-148.36
850.17	12.36
850.338	-104.21
850.506	-206.65
850.674	-1.77
850.842	-227.84
851.01	-79.48
851.178	-10.6
851.346	72.41
851.514	26.49
851.682	-51.22
851.85	-40.62
852.018	31.79
852.186	197.81
852.353	-1.77
852.521	72.41
852.689	-77.71
852.857	-63.58
853.024	-167.79
853.192	-227.84
853.36	-155.43
853.527	-5.3
853.695	-40.62
853.863	-130.7
854.03	-22.96
854.198	136
854.366	130.7
854.533	63.58
854.701	-222.54
854.868	47.69
855.036	-77.71
855.203	-144.83
855.371	97.14
855.538	-67.12
855.705	40.62
855.873	22.96
856.04	169.56
856.208	-26.49
856.375	-3.53
856.542	-210.18
856.71	109.5
856.877	-47.69
857.044	-3.53
857.211	109.5
857.379	-127.17
857.546	-49.45
857.713	-91.84
857.88	-158.96
858.047	130.7
858.214	30.03
858.381	-203.11
858.549	-157.19
858.716	95.38
858.883	144.83
859.05	-137.76
859.217	113.04
859.384	90.08
859.551	105.97
859.718	-247.27
859.885	56.52
860.052	-90.08
860.218	-86.54
860.385	-90.08
860.552	-252.57
860.719	128.93
860.886	201.35
861.053	5.3
861.219	42.39
861.386	-70.65
861.553	-176.62
861.72	-70.65
861.886	-58.28
862.053	8.83
862.22	19.43
862.386	-54.75
862.553	-224.31
862.72	-86.54
862.886	-98.91
863.053	-143.06
863.219	-162.49
863.386	52.99
863.552	-125.4
863.719	26.49
863.885	-111.27
864.052	111.27
864.218	-81.25
864.385	-35.32
864.551	-196.05
864.717	-21.19
864.884	-277.29
865.05	21.19
865.216	-90.08
865.383	52.99
865.549	30.03
865.715	-30.03
865.881	37.09
866.048	-183.69
866.214	-180.15
866.38	102.44
866.546	-114.8
866.712	98.91
866.878	-111.27
867.045	-7.06
867.211	-155.43
867.377	114.8
867.543	-111.27
867.709	-254.33
867.875	-213.71
868.041	83.01
868.207	0
868.373	105.97
868.539	15.9
868.705	-44.16
868.87	-256.1
869.036	68.88
869.202	-22.96
869.368	-35.32
869.534	-68.88
869.7	-100.67
869.865	40.62
870.031	-153.66
870.197	-167.79
870.363	-105.97
870.528	-252.57
870.694	22.96
870.86	-151.89
871.025	293.19
871.191	-220.78
871.356	-74.18
871.522	-49.45
871.688	105.97
871.853	-151.89
872.019	44.16
872.184	70.65
872.35	-125.4
872.515	79.48
872.68	-148.36
872.846	-173.09
873.011	-47.69
873.177	-240.2
873.342	17.66
873.507	-153.66
873.673	-173.09
873.838	-28.26
874.003	-174.85
874.169	-17.66
874.334	17.66
874.499	-35.32
874.664	79.48
874.829	14.13
874.995	-24.73
875.16	-91.84
875.325	136
875.49	-109.5
875.655	19.43
875.82	300.25
875.985	-252.57
876.15	67.12
876.315	-38.86
876.48	-132.47
876.645	-24.73
876.81	-173.09
876.975	81.25
877.14	109.5
877.305	28.26
877.47	-105.97
877.635	-236.67
877.799	-102.44
877.964	-197.81
878.129	111.27
878.294	-111.27
878.459	-7.06
878.623	-28.26
878.788	5.3
878.953	-326.75
879.117	123.63
879.282	58.28
879.447	37.09
879.611	22.96
879.776	-199.58
879.941	-250.8
880.105	-74.18
880.27	144.83
880.434	-173.09
880.599	-132.47
880.763	-215.48
880.928	105.97
881.092	-148.36
881.257	-116.57
881.421	-183.69
881.585	208.41
881.75	-22.96
881.914	-167.79
882.078	137.76
882.243	114.8
882.407	-204.88
882.571	-132.47
882.735	-70.65
882.9	-77.71
883.064	-211.94
883.228	22.96
883.392	-77.71
883.556	-54.75
883.721	100.67
883.885	104.21
884.049	-144.83
884.213	-54.75
884.377	-116.57
884.541	-176.62
884.705	75.95
884.869	10.6
885.033	-31.79
885.197	-77.71
885.361	-114.8
885.525	245.5
885.689	-173.09
885.852	42.39
886.016	-256.1
886.18	37.09
886.344	-100.67
886.508	-45.92
886.672	-100.67
886.835	-136
886.999	-3.53
887.163	33.56
887.326	17.66
887.49	1.77
887.654	-287.89
887.817	102.44
887.981	83.01
888.145	-148.36
888.308	84.78
888.472	116.57
888.635	-28.26
888.799	1.77
888.962	-164.26
889.126	26.49
889.289	-120.1
889.453	-196.05
889.616	3.53
889.78	-12.36
889.943	65.35
890.106	97.14
890.27	-49.45
890.433	-166.02
890.596	67.12
890.76	-10.6
890.923	33.56
891.086	-238.44
891.249	63.58
891.413	-229.61
891.576	-120.1
891.739	40.62
891.902	-120.1
892.065	146.59
892.228	24.73
892.391	-199.58
892.554	12.36
892.717	-90.08
892.88	217.24
893.044	-240.2
893.206	-8.83
893.369	-44.16
893.532	-137.76
893.695	-72.41
893.858	-171.32
894.021	-203.11
894.184	5.3
894.347	-49.45
894.51	-93.61
894.673	-125.4
894.835	-169.56
894.998	-72.41
895.161	-37.09
895.324	-26.49
895.486	-63.58
895.649	8.83
895.812	-44.16
895.974	79.48
896.137	-236.67
896.3	-245.5
896.462	-180.15
896.625	-33.56
896.787	-120.1
896.95	10.6
897.112	-63.58
897.275	-74.18
897.437	10.6
897.6	-160.72
897.762	-385.03
897.925	93.61
898.087	-275.53
898.249	-183.69
898.412	-187.22
898.574	-349.71
898.736	-84.78
898.899	-178.39
899.061	-372.67
899.223	-155.43
899.385	91.84
899.548	-128.93
899.71	-188.98
899.872	-226.07
900.034	-5.3
900.196	-118.34
900.358	54.75
900.521	81.25
900.683	-51.22
900.845	-176.62
901.007	-166.02
901.169	-1.77
901.331	-1.77
901.493	-1.77
